Alpha (deg),Cl,Cd,Cm
-180.0,0.0,0.019552661866816,0.0
-177.0,0.0834202287583727,0.0207619796786829,0.120000000361047
-174.0,0.166840456265748,0.0239877342602867,0.239999998922534
-171.0,0.250261143417445,0.0291986663441868,0.360000658682385
-168.0,0.333685151428666,0.041432528303243,0.399743635075898
-165.0,0.417101142073865,0.0732413862627541,0.39935913652166
-162.0,0.500525925436647,0.111627526615246,0.398974597438176
-159.0,0.58393700170126,0.15614685578106,0.406085502140405
-156.0,0.667364005975579,0.206174153896314,0.428196213239901
-153.0,0.750782948714508,0.260841689712847,0.45031007693545
-150.0,0.834202285087393,0.319930416883033,0.469867792353141
-147.0,0.875099940069844,0.383188743761014,0.463832226277259
-144.0,0.831000205902903,0.448665202355299,0.455301255227529
-141.0,0.791333633761781,0.517120617689233,0.44715993124866
-138.0,0.752829736800921,0.586698801471564,0.441410930203654
-135.0,0.714980618552918,0.657054532560924,0.437067951595485
-132.0,0.676617926267737,0.727610176288623,0.432841257379458
-129.0,0.636510020466442,0.797181660277416,0.431487188327612
-126.0,0.594734379500562,0.865384777799569,0.431603059788718
-123.0,0.551721331528379,0.931880170427009,0.432818405981051
-120.0,0.506423828584873,0.994534561275003,0.434290488227459
-117.0,0.459542623947041,1.05363617134045,0.435939207014553
-114.0,0.411268801306274,1.10910040363282,0.437678932761354
-111.0,0.361495551358292,1.15991218460764,0.439418281583165
-108.0,0.310261159064317,1.20388275842685,0.439240195894324
-105.0,0.258366581509799,1.24270643604662,0.43862902073393
-102.0,0.205984690074173,1.27619662826639,0.437570813350906
-99.0,0.153441512536115,1.30183189915821,0.435092357890125
-96.0,0.101425859546441,1.32008768392162,0.430825118302771
-93.0,0.0502028521364513,1.33222604674926,0.425998256525452
-90.0,-1.96654171748003e-10,1.3381710005328,0.421170577316279
-87.0,-0.0502028518354531,1.33222604678491,0.411104959934319
-84.0,-0.1014258594063,1.32008768396473,0.401038604681777
-81.0,-0.153441512947757,1.30183189895738,0.390550035571139
-78.0,-0.205984690485816,1.27619662806556,0.378736830135484
-75.0,-0.258366581299335,1.24270643618651,0.365903993830983
-72.0,-0.310261158823898,1.2038827586292,0.352775590251676
-69.0,-0.361495551682673,1.15991218427649,0.339403123131017
-66.0,-0.41126880094229,1.1091004040044,0.324950085338026
-63.0,-0.459542623880982,1.05363617141988,0.310497051721211
-60.0,-0.506423828730917,0.994534561072981,0.296059091041452
-57.0,-0.551721331047924,0.9318801710915,0.281651267185401
-54.0,-0.594734379582414,0.865384777672382,0.267257140769164
-51.0,-0.636510020787997,0.797181659734181,0.252947255059035
-48.0,-0.676617926467663,0.727610175921729,0.238752956747303
-45.0,-0.714980618222955,0.657054533169817,0.224783573303687
-42.0,-0.740322831061028,0.586698801476379,0.210814217579666
-39.0,-0.768743550250921,0.517120617558389,0.182547015200994
-36.0,-0.800759956528308,0.448665203049708,0.135138311729573
-33.0,-0.839686645510617,0.383188743549889,0.0858500210206458
-30.0,-0.957802176215886,0.290355152381776,0.0562803999161049
-29.3939393939394,-0.989895621800148,0.268636379109098,0.0523178716162345
-28.7878787878788,-1.02219048144211,0.246775693611549,0.0483576008158326
-28.1818181818182,-1.05468055999971,0.224734151022492,0.0444028573739143
-27.5757575757576,-1.06359177336017,0.211782563227238,0.0408896872990507
-26.969696969697,-1.06177842203526,0.202891612489261,0.0375824327251557
-26.3636363636364,-1.05980611588569,0.193984115047651,0.0343288781288582
-25.7575757575758,-1.05876067286832,0.184940167227477,0.0309659207662162
-25.1515151515151,-1.05786563983126,0.17588948299518,0.0275895048296746
-24.5454545454545,-1.05790125690222,0.166831268953831,0.0242124375837997
-23.9393939393939,-1.05834919084821,0.157870455571328,0.0209143044907597
-23.3333333333333,-1.05971397196436,0.149848536888395,0.0183334460183055
-22.7272727272727,-1.06146988583755,0.141802271331194,0.0157521968935374
-22.1212121212121,-1.06378363499443,0.133715420915317,0.0131701797983967
-21.5151515151515,-1.06693234154986,0.125553180058438,0.0105863007677015
-20.9090909090909,-1.06843695964539,0.117416487050827,0.00799550942868354
-20.3030303030303,-1.06967267383079,0.109439044174982,0.0054198130485407
-19.6969696969697,-1.07021067144904,0.102264019016625,0.003502092045225
-19.0909090909091,-1.07005095239489,0.0958914116967863,0.00225499935239024
-18.4848484848485,-1.06989123334075,0.089518804376948,0.0010153018969525
-17.8787878787879,-1.0692818224828,0.0833008471044948,-0.000115006937890661
-17.2727272727273,-1.0668736440281,0.0777014901527917,-0.000795456308236171
-16.6666666666667,-1.06446546557339,0.0721021332010886,-0.0014880477163764
-16.0606060606061,-1.06205728711869,0.0665027762493855,-0.00219129996538418
-15.4545454545455,-1.06984950643902,0.0608475983445578,-0.00211760384465786
-14.8484848484848,-1.0787751036698,0.0551862181095262,-0.00195898605465945
-14.2424242424242,-1.09046295439131,0.0495248378744946,-0.00180206632995823
-13.6363636363636,-1.09526416654006,0.0444170945462461,-0.00232206119936066
-13.030303030303,-1.09491030546259,0.0395696231332499,-0.0032926703354468
-12.4242424242424,-1.09364685913466,0.0347641952874823,-0.00438851210413164
-11.8181818181818,-1.07648578526447,0.0304620986463004,-0.00718488201467075
-11.2121212121212,-1.02528925096658,0.0273142843595709,-0.0142758595689516
-10.6060606060606,-0.974031373465609,0.0241814065731537,-0.0212064275734282
-10.0,-0.92113470190754,0.0210638965083506,-0.0281367644297641
-9.39393939393939,-0.853495083005357,0.0195385433458662,-0.0337143808946777
-8.78787878787879,-0.784712212261045,0.0180470054921577,-0.0389300405932204
-8.18181818181818,-0.715832120991001,0.0165056026741939,-0.0441024468443499
-7.57575757575758,-0.641670491351778,0.0153632078284918,-0.0490953201280567
-6.96969696969697,-0.567345143450005,0.0144005128047222,-0.053929065653366
-6.36363636363636,-0.492699442787116,0.0134376704914974,-0.0587384773337151
-5.75757575757576,-0.414431650686661,0.0126704051975197,-0.0635448309970005
-5.15151515151515,-0.330926042795942,0.0121967146000242,-0.0683866474399513
-4.54545454545454,-0.24740972527258,0.0117230387902849,-0.0732326230276675
-3.93939393939394,-0.163820593771546,0.0112767061207295,-0.0780020748920406
-3.33333333333333,-0.0796950418709322,0.011076302233929,-0.0819982172817726
-2.72727272727273,0.00444967955915686,0.0108758996773736,-0.0860142856239769
-2.12121212121212,0.0886473520411112,0.0106754986124071,-0.0900045893904893
-1.51515151515152,0.171649421338772,0.0105756167997378,-0.0935025501111019
-0.909090909090912,0.2529924304137,0.0105102025057222,-0.0968257900641276
-0.303030303030302,0.33372097533725,0.0104976882174925,-0.0998774991793156
0.303030303030302,0.414481738000177,0.0105124160660171,-0.102790622715614
0.909090909090912,0.494931264126173,0.0105543858473995,-0.105565529163254
1.51515151515152,0.574603502008985,0.0106374181751525,-0.108141553805353
2.12121212121212,0.6539740194818,0.0107358079962699,-0.110640364976277
2.72727272727273,0.732685458558475,0.0108666414407707,-0.112970727596481
3.33333333333333,0.810924739193352,0.0110188991043969,-0.11519801909477
3.93939393939394,0.888777666014884,0.0111886848989429,-0.117340992158989
4.54545454545455,0.96573879813941,0.011398294271685,-0.119314055478382
5.15151515151515,1.04219964654155,0.0116367651901645,-0.121209465625245
5.75757575757576,1.11746037595214,0.0119485498998795,-0.122928460948912
6.36363636363637,1.1920839456561,0.0122736203072552,-0.124525177591861
6.96969696969697,1.26627871358918,0.0126074619971107,-0.126040359015054
7.57575757575757,1.33877792150034,0.0130116353888271,-0.127310492912803
8.18181818181818,1.41050362544413,0.0134452100544493,-0.128472892903114
8.78787878787879,1.48063107166512,0.013938134121699,-0.129413900682935
9.39393939393939,1.54855248315569,0.0145166622456553,-0.130076751722553
10.0,1.61528863914906,0.0151414031912844,-0.130589949262514
10.6060606060606,1.67749412643627,0.0159462211960211,-0.130561347954824
11.2121212121212,1.73746654186461,0.0168501353228114,-0.130304527213343
11.8181818181818,1.7933020108954,0.0179388046949482,-0.129623672715698
12.4242424242424,1.84270714580487,0.0193666432560831,-0.128407966889332
13.030303030303,1.88891833207242,0.0209739381048131,-0.126929052001916
13.6363636363636,1.92459043040037,0.0232044014176999,-0.124834906984392
14.2424242424242,1.94635091667309,0.02649011436811,-0.122021041285589
14.8484848484848,1.94368134020562,0.0311499105584684,-0.11803198457033
15.4545454545455,1.93585337089804,0.0367451717888745,-0.115128958060241
16.0606060606061,1.92149216398124,0.0430012196636715,-0.112755941080767
16.6666666666667,1.87941833647519,0.052105653030699,-0.11160543651177
17.2727272727273,1.83765000082346,0.0612100863977265,-0.110452973672772
17.8787878787879,1.79602978417815,0.070314519764754,-0.109298305733649
18.4848484848485,1.74176223952521,0.0818923598968819,-0.110090543316403
19.0909090909091,1.68441724236538,0.0940885515891278,-0.111345407708753
19.6969696969697,1.62717366921803,0.106284743281374,-0.112568553644062
20.3030303030303,1.58102215846647,0.11880964479433,-0.114903497064265
20.9090909090909,1.54593506616749,0.131663256078416,-0.118376749975157
21.5151515151515,1.51091287936231,0.144516867362501,-0.121849118588917
22.1212121212121,1.47596528204672,0.157370478646587,-0.125320475774792
22.7272727272727,1.44110398553129,0.170224089930673,-0.128790668906944
23.3333333333333,1.40634328825543,0.183077701214759,-0.132259513190899
23.9393939393939,1.37170083194648,0.19619665942077,-0.135726782818043
24.5454545454545,1.35717829083362,0.208445598826203,-0.139321773407697
25.1515151515151,1.34536637237358,0.220598241233796,-0.142925500338938
25.7575757575758,1.3348009704771,0.232747235456513,-0.146522273424782
26.3636363636364,1.32536094347959,0.244892040379336,-0.150110661487321
26.969696969697,1.31831031385263,0.256606281696038,-0.153688824029175
27.5757575757576,1.30967030345357,0.268484358986412,-0.157254351903772
28.1818181818182,1.29948144189237,0.28074344861534,-0.160855149404066
28.7878787878788,1.28803308911012,0.293568469863241,-0.164573197554415
29.3939393939394,1.27675129284426,0.30637504213652,-0.168298674327502
30.0,1.26563662260031,0.319171157243686,-0.172032851773522
33.0,1.21055975532482,0.383188743549889,-0.190511029539339
36.0,1.15362468375208,0.448665203049708,-0.208501906304484
39.0,1.1056105544382,0.51712061755839,-0.22617892555741
42.0,1.06178223078686,0.58669880147638,-0.241307403904956
45.0,1.02140088317565,0.657054533169817,-0.254536374485493
48.0,0.966597037810948,0.727610175921729,-0.267765434877668
51.0,0.909300029697139,0.797181659734182,-0.280315666041369
54.0,0.849620542260592,0.865384777672382,-0.292517019788406
57.0,0.788173330068462,0.931880171091501,-0.304461413065423
60.0,0.723462612472738,0.994534561072982,-0.316310685560552
63.0,0.656489462687117,1.05363617141988,-0.327950687074285
66.0,0.587526858488986,1.1091004040044,-0.339486054851726
69.0,0.516422216689533,1.15991218427649,-0.351021424442629
72.0,0.443230226891282,1.2038827586292,-0.361929815198622
75.0,0.369095116141907,1.24270643618651,-0.372696596799325
78.0,0.294263843551166,1.27619662806556,-0.383302080802914
81.0,0.219202161353939,1.30183189895738,-0.393385981499589
84.0,0.144894084866143,1.32008768396473,-0.40279746407949
87.0,0.0717183597649327,1.33222604678491,-0.411984435306619
90.0,2.80934388717842e-10,1.3381710005328,-0.421170577319725
93.0,-0.0502028521364511,1.33222604674926,-0.425998256525451
96.0,-0.101425859546442,1.32008768392162,-0.430825118302771
99.0,-0.153441512536115,1.30183189915821,-0.435092357890125
102.0,-0.205984690074173,1.27619662826639,-0.437570813350906
105.0,-0.258366581509799,1.24270643604662,-0.43862902073393
108.0,-0.310261159064317,1.20388275842685,-0.439240195894324
111.0,-0.361495551358293,1.15991218460764,-0.439418281583165
114.0,-0.411268801306274,1.10910040363282,-0.437678932761354
117.0,-0.459542623947041,1.05363617134045,-0.435939207014553
120.0,-0.506423828584873,0.994534561275002,-0.43429048822746
123.0,-0.551721331528379,0.93188017042701,-0.432818405981051
126.0,-0.594734379500562,0.86538477779957,-0.431603059788718
129.0,-0.636510020466442,0.797181660277415,-0.431487188327612
132.0,-0.676617926267737,0.727610176288623,-0.432841257379458
135.0,-0.714980618552918,0.657054532560924,-0.437067951595485
138.0,-0.752829736800921,0.586698801471564,-0.441410930203654
141.0,-0.791333633761781,0.517120617689232,-0.44715993124866
144.0,-0.831000205902903,0.448665202355299,-0.455301255227529
147.0,-0.875099940069844,0.383188743761014,-0.463832226277259
150.0,-0.834202285087392,0.319930416883032,-0.469867792353141
153.0,-0.750782056484687,0.260841090384395,-0.450309840382696
156.0,-0.667361827881982,0.206172784553455,-0.428195635908944
159.0,-0.583941599279276,0.156149531263759,-0.406086720491966
162.0,-0.500521370676571,0.111625348246638,-0.418974618565182
165.0,-0.417101142073865,0.0732413862627543,-0.449359136688186
168.0,-0.333680913471159,0.0414310284628954,-0.479743654811191
171.0,-0.250260684868453,0.0291986352014165,-0.449999998824567
174.0,-0.166840456265748,0.0239877342602867,-0.299999998653168
177.0,-0.0834202287583727,0.0207619796786829,-0.150000000451309
180.0,0.0,0.019552661866816,0.0
