Alpha (deg),Cl,Cd,Cm
-180.0,0.0,0.0158679141491202,0.0
-177.0,0.0818508667710166,0.0171296710376709,0.120000000361047
-174.0,0.16370173231457,0.020495284009274,0.239999998922534
-171.0,0.245553048855282,0.0259321226204675,0.360000658682385
-168.0,0.327407623781096,0.039186774750546,0.398475896368053
-165.0,0.409254332169404,0.0726070549592011,0.396190031228569
-162.0,0.491109667860301,0.112365654698594,0.39390392514048
-159.0,0.572951554320924,0.158652790103762,0.399846403403343
-156.0,0.654809069141956,0.210750125236679,0.422250956475221
-153.0,0.73665867408706,0.267706346602214,0.44465333928146
-150.0,0.818508665260794,0.329282081934137,0.464644682760683
-147.0,0.859949398190465,0.395212346684763,0.460522955067187
-144.0,0.820569940919633,0.463460299564237,0.453977666668708
-141.0,0.784614769912946,0.534821761077758,0.447735099662654
-138.0,0.749221229426802,0.607360174622304,0.443911435113118
-135.0,0.713884867804572,0.680715787405259,0.441494972333349
-132.0,0.677739987152697,0.754289162034501,0.439133480694298
-129.0,0.639835389587287,0.826847429610856,0.439227305923381
-126.0,0.600078051982228,0.897988329305014,0.440579974529818
-123.0,0.558615524102948,0.967358462219951,0.442842848035308
-120.0,0.514280561744404,1.03274040494222,0.445110880105781
-117.0,0.467992818134247,1.09443087901121,0.447375047685588
-114.0,0.419986194531229,1.15234116880041,0.449637360284405
-111.0,0.370124524836453,1.20541533401725,0.451899773046088
-108.0,0.318395785912767,1.25137620716895,0.452013949280662
-105.0,0.265753815161194,1.29198457496075,0.451642910829819
-102.0,0.212382634950998,1.32704601277033,0.450784956857608
-99.0,0.15854570698605,1.35393716807282,0.448418725910489
-96.0,0.105000164564273,1.37315154969266,0.444153153554852
-93.0,0.0520722481330318,1.38600160548366,0.439294024086006
-90.0,-2.03976954895508e-10,1.39240799336012,0.434434881696917
-87.0,-0.0520722478208254,1.38600160552207,0.423992321370291
-84.0,-0.105000164419798,1.37315154973811,0.413549741961831
-81.0,-0.158545707407829,1.35393716786214,0.402661051011495
-78.0,-0.212382635372777,1.32704601255965,0.390345748762977
-75.0,-0.265753814946958,1.29198457510717,0.376898727655418
-72.0,-0.318395785669835,1.25137620738048,0.363129442424873
-69.0,-0.370124525161412,1.20541533367136,0.349085383355173
-66.0,-0.4199861941666,1.15234116918853,0.333824823485506
-63.0,-0.467992818068755,1.09443087909414,0.318564265506784
-60.0,-0.514280561887351,1.0327404047314,0.303292482030605
-57.0,-0.558615523632725,0.967358462913368,0.287998243348612
-54.0,-0.600078052061049,0.89798832917233,0.272693797079742
-51.0,-0.639835389889997,0.826847429044278,0.257482785381839
-48.0,-0.677739987339281,0.754289161651913,0.242401731684965
-45.0,-0.713884867491476,0.680715788040192,0.227573551219639
-42.0,-0.727696155089907,0.607360174627325,0.212745383766124
-39.0,-0.745734134430066,0.534821760941358,0.18409320104988
-36.0,-0.768511214219116,0.463460300288051,0.136914116306565
-33.0,-0.798952087976704,0.395212346464706,0.087488247441168
-30.0,-0.922350691693433,0.295571728132748,0.0574363298116547
-29.3939393939394,-0.956855676657766,0.272265331195459,0.0533237667368088
-28.7878787878788,-0.991571428870871,0.248955836487878,0.0492126421050544
-28.1818181818182,-1.02648236366236,0.22564673586885,0.0451046203619376
-27.5757575757576,-1.03547758357087,0.212408855893297,0.0415201653681693
-26.969696969697,-1.03311519759645,0.203536605367446,0.0381679155722176
-26.3636363636364,-1.03075913087093,0.194658912249475,0.0348412042002316
-25.7575757575758,-1.02892913753524,0.185719354302481,0.0314629601459165
-25.1515151515151,-1.0272536499882,0.176779550353656,0.0280785815256483
-24.5454545454545,-1.02706290403909,0.16783947142955,0.0246941791207178
-23.9393939393939,-1.02736186007941,0.158999287239444,0.0213840838924647
-23.3333333333333,-1.02789309758561,0.151060430766745,0.0187430043571216
-22.7272727272727,-1.02843881139228,0.14312068518935,0.0161019105558485
-22.1212121212121,-1.0290051713633,0.13517945752485,0.0134607887096585
-21.5151515151515,-1.02960243412619,0.127235476735066,0.0108195988688821
-20.9090909090909,-1.03013884716958,0.119292428907457,0.00817815660285729
-20.3030303030303,-1.03066530775122,0.111355196612403,0.00553726557797612
-19.6969696969697,-1.02986399905391,0.104272476594403,0.00352608722907748
-19.0909090909091,-1.02773492087738,0.0980442689823423,0.00216170731697163
-18.4848484848485,-1.02560584270085,0.091816061370282,0.000800823356972474
-17.8787878787879,-1.02316821802491,0.0857146531449627,-0.000463771220105768
-17.2727272727273,-1.01949640708958,0.0801204425741881,-0.0013373912909326
-16.6666666666667,-1.01582459615425,0.0745262320034134,-0.00221675126980145
-16.0606060606061,-1.01215278521892,0.0689320214326388,-0.0031011509501821
-15.4545454545455,-1.02777363422401,0.0626341781212088,-0.00304695003772233
-14.8484848484848,-1.04553811282987,0.0562581533679453,-0.00288912477355991
-14.2424242424242,-1.06462602027456,0.0498821286146819,-0.00273210223615719
-13.6363636363636,-1.07584097022793,0.0443488792085956,-0.0031778850319988
-13.030303030303,-1.08153707151904,0.0393459470666596,-0.0040252250621775
-12.4242424242424,-1.08679737958703,0.0343548849575983,-0.00487714360761513
-11.8181818181818,-1.07512482731996,0.0298622889785943,-0.00764984462913969
-11.2121212121212,-1.02509168863535,0.0265320446546754,-0.0149784516951656
-10.6060606060606,-0.975065922534456,0.0232023457852745,-0.0222316528884049
-10.0,-0.924410387790393,0.019873208117829,-0.0294848456405237
-9.39393939393939,-0.855728730272334,0.0182803550377773,-0.0351492325778905
-8.78787878787879,-0.786505252761646,0.0167027109453363,-0.0406461611591981
-8.18181818181818,-0.717243372811184,0.0151005550972302,-0.0461272374589209
-7.57575757575758,-0.641422235821983,0.0140049140783856,-0.0513101114056789
-6.96969696969697,-0.563306934822525,0.0131307472307912,-0.0563328100992976
-6.36363636363636,-0.485038148965837,0.0122564825998425,-0.0613560042081148
-5.75757575757576,-0.404800649647557,0.011571424190434,-0.066141860222837
-5.15151515151515,-0.321703660933879,0.0111703122556116,-0.0705722996347093
-4.54545454545454,-0.238601541106514,0.0107692002228708,-0.0750048655834085
-3.93939393939394,-0.155604488989033,0.0103921886063881,-0.0793467562061979
-3.33333333333333,-0.0736100153717181,0.0102320793926058,-0.0828320395523411
-2.72727272727273,0.00839364259751036,0.0100719656764539,-0.0863177572451288
-2.12121212121212,0.0904226700519508,0.00991184682522971,-0.0897789587415947
-1.51515151515152,0.171471429231027,0.00983644628586984,-0.0928445367578063
-0.909090909090912,0.25184345318178,0.00979064620988203,-0.0957619813516261
-0.303030303030302,0.33158268013384,0.00979256217925452,-0.0984610865073983
0.303030303030302,0.41115731960767,0.00981909067469369,-0.10105141290856
0.909090909090912,0.49041293891542,0.00987023229051491,-0.103533202027378
1.51515151515152,0.568976158888325,0.00996190565659767,-0.105849405708383
2.12121212121212,0.647265720347493,0.0100688640210675,-0.108101389873773
2.72727272727273,0.724961737680752,0.0102083580109048,-0.110213431144725
3.33333333333333,0.802217454375048,0.010368095940249,-0.112236995397157
3.93939393939394,0.879112994427612,0.0105443933171803,-0.114188171268153
4.54545454545455,0.955148442629053,0.010761570116021,-0.115982773874862
5.15151515151515,1.03064992135324,0.0110145995596881,-0.117701725593931
5.75757575757576,1.10484017905584,0.0113614759588795,-0.119245913138637
6.36363636363637,1.17847685024459,0.0117085864650226,-0.120684844978672
6.96969696969697,1.25174264769696,0.0120558783377462,-0.122053595711656
7.57575757575757,1.32343053491149,0.0124678352479633,-0.123198849825526
8.18181818181818,1.39433099606547,0.012912662598851,-0.12424005746322
8.78787878787879,1.46358801758117,0.0134259347392746,-0.125065909586282
9.39393939393939,1.53069863850312,0.01402416821268,-0.125626656778924
10.0,1.59665323651444,0.0146680902540002,-0.126044641822653
10.6060606060606,1.65809142880729,0.0154893109309071,-0.125929154405477
11.2121212121212,1.71724230906957,0.0164049069241556,-0.125573213693749
11.8181818181818,1.77214800821743,0.0174962409167581,-0.124770687192149
12.4242424242424,1.82006407530118,0.0189247022320592,-0.123365360095037
13.030303030303,1.86445115235159,0.0205250682480652,-0.121672977662747
13.6363636363636,1.8987236194511,0.0226585339743618,-0.119452524685733
14.2424242424242,1.91351545946226,0.0260162756602199,-0.11619068635769
14.8484848484848,1.89793570661345,0.031088488825519,-0.111320328663941
15.4545454545455,1.88173925104404,0.0369992510528734,-0.108230265488213
16.0606060606061,1.86092184843564,0.0436026983114376,-0.10592583760179
16.6666666666667,1.80721144245952,0.0539098939421393,-0.105225211455239
17.2727272727273,1.7535123431096,0.064217089572841,-0.10452012010229
17.8787878787879,1.69981872582479,0.0745242852035427,-0.103810208043994
18.4848484848485,1.64351805711343,0.086855767647323,-0.105397510360199
19.0909090909091,1.58656874864691,0.0996933216870313,-0.107540297822912
19.6969696969697,1.52962319400681,0.11253087572674,-0.109656095011284
20.3030303030303,1.48604389484724,0.125222841057241,-0.11251618780877
20.9090909090909,1.45582982607801,0.137769217700495,-0.116145067608811
21.5151515151515,1.42561815954028,0.150315594343749,-0.119773526687565
22.1212121212121,1.39540925365055,0.162861970987004,-0.123401504287719
22.7272727272727,1.36520354185871,0.175408347630258,-0.127028927365188
23.3333333333333,1.33500155336745,0.187954724273512,-0.130655707319805
23.9393939393939,1.30480394111861,0.200510790916052,-0.134281735624903
24.5454545454545,1.29431247870327,0.212401295671914,-0.137845624742491
25.1515151515151,1.28659288299637,0.224217862718375,-0.14139998462184
25.7575757575758,1.28071563474891,0.236034296539591,-0.144951011797655
26.3636363636364,1.27540368954095,0.247850577374999,-0.148498033243677
26.969696969697,1.27124605334923,0.259465430360199,-0.152040182078385
27.5757575757576,1.26631948684511,0.271160193862491,-0.155576322289127
28.1818181818182,1.25844780133917,0.283621707034455,-0.159242080273327
28.7878787878788,1.24495004618608,0.297723425774472,-0.1632249940702
29.3939393939394,1.2316298023414,0.311825256442109,-0.167208171710058
30.0,1.21848927570426,0.325927092152027,-0.171191653946673
33.0,1.16020074405625,0.395212346464706,-0.190520640212082
36.0,1.11446911343142,0.463460300288051,-0.20905783979537
39.0,1.07804210225128,0.534821760941358,-0.227308367332657
42.0,1.04674157691635,0.607360174627325,-0.24322696147401
45.0,1.01983552498782,0.680715788040193,-0.257407416366057
48.0,0.968199981913258,0.754289161651913,-0.271587913626032
51.0,0.914050556985709,0.826847429044279,-0.285088600692871
54.0,0.857254360087213,0.89798832917233,-0.298239909101287
57.0,0.798022176618178,0.967358462913369,-0.311131963072025
60.0,0.73468651698193,1.0327404047314,-0.323890222313456
63.0,0.66856116866965,1.09443087909414,-0.336354130937695
66.0,0.599980277380857,1.15234116918853,-0.348670865053197
69.0,0.52874932165916,1.20541533367136,-0.360987599958173
72.0,0.454851122385478,1.25137620738048,-0.372520903260155
75.0,0.379648307067082,1.29198457510717,-0.383877252403191
78.0,0.303403764818252,1.32704601255965,-0.395044809837635
81.0,0.22649386772547,1.35393716786214,-0.405596237627641
84.0,0.150000234885425,1.37315154973811,-0.415371229712901
87.0,0.0743889254583217,1.38600160552207,-0.424903066880465
90.0,2.91395498141419e-10,1.39240799336012,-0.434434881700485
93.0,-0.0520722481330316,1.38600160548366,-0.439294024086006
96.0,-0.105000164564273,1.37315154969266,-0.444153153554852
99.0,-0.15854570698605,1.35393716807282,-0.448418725910489
102.0,-0.212382634950998,1.32704601277033,-0.450784956857608
105.0,-0.265753815161194,1.29198457496075,-0.451642910829819
108.0,-0.318395785912767,1.25137620716895,-0.452013949280662
111.0,-0.370124524836454,1.20541533401725,-0.451899773046088
114.0,-0.419986194531229,1.15234116880041,-0.449637360284405
117.0,-0.467992818134247,1.09443087901121,-0.447375047685588
120.0,-0.514280561744405,1.03274040494222,-0.445110880105781
123.0,-0.558615524102948,0.967358462219951,-0.442842848035308
126.0,-0.600078051982228,0.897988329305014,-0.440579974529818
129.0,-0.639835389587287,0.826847429610855,-0.439227305923381
132.0,-0.677739987152697,0.754289162034501,-0.439133480694298
135.0,-0.713884867804572,0.680715787405259,-0.441494972333349
138.0,-0.749221229426803,0.607360174622304,-0.443911435113118
141.0,-0.784614769912947,0.534821761077757,-0.447735099662654
144.0,-0.820569940919633,0.463460299564237,-0.453977666668708
147.0,-0.859949398190466,0.395212346684763,-0.460522955067187
150.0,-0.818508665260794,0.329282081934136,-0.464644682760683
153.0,-0.736657798642515,0.2677057221092,-0.444653099670827
156.0,-0.654806932024238,0.210748698802552,-0.422250371542137
159.0,-0.57295606540596,0.158655575039037,-0.399847638095451
162.0,-0.491105198787682,0.112363394631347,-0.413904050087731
165.0,-0.409254332169404,0.0726070549592012,-0.446190031395095
168.0,-0.327403465551126,0.0391851891937459,-0.47847601270246
171.0,-0.245552598932848,0.0259320901278668,-0.449999998824567
174.0,-0.16370173231457,0.020495284009274,-0.299999998653168
177.0,-0.0818508667710166,0.0171296710376709,-0.150000000451309
180.0,0.0,0.0158679141491202,0.0
