Alpha (deg),Cl,Cd,Cm
-180.0,0.0,0.0174928404489485,0.0
-177.0,0.0826679131497706,0.0187283338579794,0.120000000361047
-174.0,0.165335825059825,0.0220237474095995,0.239999998922534
-171.0,0.248004192468954,0.0273466594061081,0.360000658682385
-168.0,0.330675850788822,0.0402409419027543,0.39913612770245
-165.0,0.413339564046348,0.0729275435095761,0.39784048380492
-162.0,0.496011990725359,0.112019986098578,0.396544703336083
-159.0,0.578670833922068,0.157444177967859,0.403099966167635
-156.0,0.661345461483585,0.208538426529486,0.425363874954788
-153.0,0.744012100211727,0.264387253019196,0.447627717643576
-150.0,0.826679129023885,0.324760286489456,0.467405764279515
-147.0,0.867857571950158,0.389398746278347,0.462309844625777
-144.0,0.826076100032,0.456306943264516,0.454732584087796
-141.0,0.788220991712121,0.526263719824305,0.447522895710658
-138.0,0.751216743679547,0.597371332668509,0.442922941394459
-135.0,0.7145354141201,0.669277031322018,0.439496447771953
-132.0,0.677326011439887,0.741391904921127,0.436202432791059
-129.0,0.638461784682118,0.8125066611407,0.435579353443038
-126.0,0.59764527119055,0.882227757486916,0.436321669601847
-123.0,0.555395913364226,0.950208576872715,0.438066497833424
-120.0,0.510571323279848,1.01427236584359,0.439932566000412
-117.0,0.463977417142197,1.07471173224724,0.441887781433465
-114.0,0.415825547703988,1.13143994880835,0.443888756271936
-111.0,0.365993252512925,1.1834208264206,0.445889739408054
-108.0,0.31449281213866,1.22841992896025,0.445858032400964
-105.0,0.262203137175972,1.26816591050842,0.44536722916536
-102.0,0.209302743669623,1.30246813271679,0.444409388157034
-99.0,0.156085760646156,1.32875250220542,0.441986651548435
-96.0,0.103275981443953,1.34750379075139,0.437719056887112
-93.0,0.0511697530943739,1.36001009331408,0.432874675536419
-90.0,-2.00441708871089e-10,1.36619368894773,0.428029950361729
-87.0,-0.0511697527875784,1.36001009335116,0.417769480400592
-84.0,-0.103275981301564,1.3475037907957,0.407508688443805
-81.0,-0.156085761063078,1.3287525019995,0.396813629785862
-78.0,-0.209302744086545,1.30246813251087,0.384740873605786
-75.0,-0.262203136963528,1.26816591065169,0.371588696674308
-72.0,-0.314492811896895,1.22841992916734,0.358127293624146
-69.0,-0.36599325283769,1.18342082608183,0.344406156042796
-66.0,-0.415825547339572,1.13143994918847,0.329535061518199
-63.0,-0.463977417076407,1.07471173232847,0.314663971767122
-60.0,-0.510571323424365,1.01427236563702,0.299794676509891
-57.0,-0.555395912888779,0.950208577552153,0.284928959917699
-54.0,-0.597645271270924,0.882227757356888,0.270064868746353
-51.0,-0.638461784995218,0.812506660585404,0.255289887313976
-48.0,-0.677326011631394,0.741391904546124,0.24063806401926
-45.0,-0.714535413797586,0.669277031944366,0.226225887582041
-42.0,-0.733991858446414,0.59737133267343,0.211813742741581
-39.0,-0.757109145842131,0.526263719690591,0.183326493956991
-36.0,-0.78442471929533,0.456306943974116,0.136002134275088
-33.0,-0.819069379252075,0.389398746062608,0.0865937487774509
-30.0,-0.939792144368865,0.292981110362885,0.0568046404188732
-29.3939393939394,-0.973063885863049,0.270432980273178,0.0527785061520053
-28.7878787878788,-1.00652351039092,0.247823804934181,0.0487555276203925
-28.1818181818182,-1.04014420520318,0.225143660076258,0.0447396167036831
-27.5757575757576,-1.04902799190979,0.21207291159463,0.0412085778696573
-26.969696969697,-1.04660436194831,0.20326344177832,0.0379042369669882
-26.3636363636364,-1.04397592930207,0.194438863029889,0.0346613148503549
-25.7575757575758,-1.04238773324236,0.18546298205794,0.0312940455223814
-25.1515151515151,-1.04094958953748,0.176484047718816,0.02791180142697
-24.5454545454545,-1.04073171258023,0.167501700394951,0.0245292621170582
-23.9393939393939,-1.04096013031466,0.15861754176661,0.0212225916936378
-23.3333333333333,-1.04169611808143,0.150645314844712,0.0186018540989733
-22.7272727272727,-1.04261062355741,0.142662052382629,0.0159809394360224
-22.1212121212121,-1.04377973178699,0.13466039430089,0.0133596766804245
-21.5151515151515,-1.04532992464678,0.126624564512669,0.0107375699781086
-20.9090909090909,-1.04612973569803,0.118600314622308,0.00811233018135813
-20.3030303030303,-1.04680681576045,0.110648246943481,0.00549393237275883
-19.6969696969697,-1.04639220858548,0.103531471655587,0.00351723439098958
-19.0909090909091,-1.04488591400846,0.0972499888846128,0.00221411421145974
-18.4848484848485,-1.04337961943145,0.090968506113639,0.000919419159849074
-17.8787878787879,-1.04151281012789,0.084824098015932,-0.000274370857283062
-17.2727272727273,-1.03820394161232,0.0792279887275906,-0.00105052213317286
-16.6666666666667,-1.03489507309674,0.0736318794392492,-0.00184050639590642
-16.0606060606061,-1.03158620458116,0.0680357701509078,-0.00264263617111143
-15.4545454545455,-1.04416290700817,0.0619750332865183,-0.00257479625020989
-14.8484848484848,-1.05850467346487,0.0558626711185973,-0.00241189475277433
-14.2424242424242,-1.07601523859046,0.0497503089506764,-0.00225092780004312
-13.6363636363636,-1.08523774750539,0.0443818058369215,-0.00273391872636867
-13.030303030303,-1.08828789871159,0.039416544613797,-0.00364546055588196
-12.4242424242424,-1.09029459299372,0.0344865928314956,-0.00461377396205131
-11.8181818181818,-1.07565438876882,0.0300582667236313,-0.00741657243844855
-11.2121212121212,-1.02518662283605,0.0267912641111212,-0.0147456587975848
-10.6060606060606,-0.974705925923142,0.0235310316633397,-0.0218926640149566
-10.0,-0.922588041912238,0.0202777648369995,-0.0290395644614012
-9.39393939393939,-0.854845096105848,0.018769230772911,-0.0346718729945179
-8.78787878787879,-0.785799895059128,0.0172980000467254,-0.039897556618922
-8.18181818181818,-0.716655941085315,0.0157684831322185,-0.0450811892798962
-7.57575757575758,-0.641507246955886,0.0146622109671797,-0.0501555188575048
-6.96969696969697,-0.565429747494949,0.0137476856194423,-0.0550995599075837
-6.36363636363636,-0.488984746135142,0.0128329481923916,-0.0600347479151616
-5.75757575757576,-0.409694620959577,0.0121093751920181,-0.0648482636899046
-5.15151515151515,-0.326360878685068,0.0116728472885168,-0.0694960528827506
-4.54545454545454,-0.243014850546943,0.0112363250845134,-0.0741488326637578
-3.93939393939394,-0.159687591953376,0.010825529768752,-0.0787199218951495
-3.33333333333333,-0.0766656650925059,0.0106462111897278,-0.0824585726003146
-2.72727272727273,0.00637825264635058,0.0104668860566886,-0.0862057937301648
-2.12121212121212,0.0894829147098068,0.0102875534384912,-0.0899042614266196
-1.51515151515152,0.171527490209944,0.0102004078517294,-0.0931861253200045
-0.909090909090912,0.252199520800356,0.0101451843913224,-0.0963023061659229
-0.303030303030302,0.332256031806762,0.0101402456725897,-0.0991734720231963
0.303030303030302,0.412413072206971,0.0101611559062306,-0.10192149283799
0.909090909090912,0.492292451271168,0.0102079159461753,-0.104546894218047
1.51515151515152,0.571413942435646,0.0102956331302099,-0.106990425152931
2.12121212121212,0.650240687442541,0.010398661853706,-0.109363464913077
2.72727272727273,0.728442357087662,0.0105340352899924,-0.111583006987015
3.33333333333333,0.80618895963171,0.0106899576041787,-0.113707415615442
3.93939393939394,0.883563326055565,0.010862686389203,-0.115753995739782
4.54545454545455,0.960065683462029,0.0110753599288337,-0.117637593381144
5.15151515151515,1.0360398660238,0.0113214179158801,-0.119443996838139
5.75757575757576,1.11072781042672,0.0116541828691673,-0.121073104814202
6.36363636363637,1.18485316701693,0.0119906208307731,-0.122590558943891
6.96969696969697,1.25859902177196,0.0123295132628005,-0.124033554071642
7.57575757575757,1.33071665910635,0.0127355183425635,-0.125243105529812
8.18181818181818,1.40206355995385,0.0131716933222384,-0.126347623969723
8.78787878787879,1.47181154845901,0.0136692888633136,-0.127235648616501
9.39393939393939,1.53936959979648,0.0142530738504953,-0.127851248847437
10.0,1.60574907456798,0.0148832212595163,-0.128320186826275
10.6060606060606,1.66759165655819,0.0156935490357434,-0.128249650411642
11.2121212121212,1.72715580096373,0.0166015029412401,-0.127942313409973
11.8181818181818,1.78249681593459,0.0176917857704372,-0.127195079035132
12.4242424242424,1.83104413154826,0.0191248794055617,-0.125869407000057
13.030303030303,1.87618353218882,0.0207342096597609,-0.124263822198377
13.6363636363636,1.91104190453703,0.022909813879848,-0.122089574071567
14.2424242424242,1.92812816683769,0.0262687090803057,-0.118972676427641
14.8484848484848,1.91533839709965,0.0311281237972474,-0.11433092358366
15.4545454545455,1.90238752087312,0.0369055104672832,-0.111255933848285
16.0606060606061,1.88405331528132,0.0433807874015342,-0.108905228062022
16.6666666666667,1.83467058555703,0.0532442331679295,-0.108060000123074
17.2727272727273,1.78542728600073,0.0631076789343248,-0.107206974909146
17.8787878787879,1.73625158974597,0.0729711247007201,-0.106345495647616
18.4848484848485,1.68080415032076,0.0850245566239347,-0.107641734366306
19.0909090909091,1.62382728694897,0.097625484970226,-0.109438268791726
19.6969696969697,1.56689671472011,0.110226413316517,-0.111179802224539
20.3030303030303,1.52250737902339,0.122856741739539,-0.113801468408383
20.9090909090909,1.49064666170158,0.135516470234856,-0.117352277738819
21.5151515151515,1.45881556803021,0.148176198730174,-0.120902075395179
22.1212121212121,1.42701851790178,0.160835927225491,-0.124450715505974
22.7272727272727,1.39526085649975,0.173495655720809,-0.127998022785337
23.3333333333333,1.36354910980435,0.186155384216126,-0.131543784749992
23.9393939393939,1.33189132971279,0.198935384685073,-0.135087741344843
24.5454545454545,1.32006217996105,0.210961430038476,-0.138659608738691
25.1515151515151,1.31096238391641,0.222903871125442,-0.142228290129395
25.7575757575758,1.30341547213821,0.234844658624751,-0.145788977839794
26.3636363636364,1.29703476974217,0.24678354726892,-0.149340046939278
26.969696969697,1.2932447389456,0.258235232585435,-0.152879405611939
27.5757575757576,1.28745377562543,0.269877439484332,-0.156404313707316
28.1818181818182,1.278739091162,0.282182410633465,-0.160017947407299
28.7878787878788,1.26629853303837,0.295671810009093,-0.163875584001021
29.3939393939394,1.25401901638841,0.309154082685556,-0.167736576019559
30.0,1.24190419939715,0.322632223996184,-0.171601491073536
33.0,1.18522024413148,0.389398746062608,-0.190517094428469
36.0,1.13391629621574,0.456306943974116,-0.208792213420667
39.0,1.0917700010901,0.526263719690592,-0.226766870300275
42.0,1.05430878668874,0.597371332673431,-0.242303467306592
45.0,1.02076487685369,0.669277031944366,-0.256022932862912
48.0,0.967608588044849,0.741391904546124,-0.269742500753534
51.0,0.912088264278883,0.812506660585404,-0.282782940683142
54.0,0.853778958958463,0.882227757356888,-0.295474348904427
57.0,0.793422732698256,0.950208577552153,-0.307907700483921
60.0,0.72938760489195,1.01427236563703,-0.320226249468423
63.0,0.662824881537724,1.07471173232847,-0.33229222670497
66.0,0.594036496199388,1.13143994918847,-0.344231920070848
69.0,0.522847504053843,1.18342082608183,-0.356171615514613
72.0,0.449275445566993,1.22841992916734,-0.367404430654045
75.0,0.374575909947897,1.26816591065169,-0.378477590269862
78.0,0.299003920123635,1.30246813251087,-0.389375395442972
81.0,0.222979658661539,1.3287525019995,-0.399701367406662
84.0,0.147537116145091,1.3475037907957,-0.409300179811636
87.0,0.0730996468393975,1.36001009335116,-0.41866524673632
90.0,2.86345150158736e-10,1.36619368894773,-0.428029950365238
93.0,-0.0511697530943737,1.36001009331408,-0.432874675536419
96.0,-0.103275981443953,1.34750379075139,-0.437719056887112
99.0,-0.156085760646156,1.32875250220542,-0.441986651548435
102.0,-0.209302743669622,1.30246813271679,-0.444409388157034
105.0,-0.262203137175972,1.26816591050842,-0.44536722916536
108.0,-0.31449281213866,1.22841992896025,-0.445858032400964
111.0,-0.365993252512925,1.1834208264206,-0.445889739408054
114.0,-0.415825547703988,1.13143994880835,-0.443888756271936
117.0,-0.463977417142197,1.07471173224724,-0.441887781433465
120.0,-0.510571323279848,1.01427236584359,-0.439932566000412
123.0,-0.555395913364226,0.950208576872715,-0.438066497833424
126.0,-0.59764527119055,0.882227757486916,-0.436321669601847
129.0,-0.638461784682119,0.812506661140699,-0.435579353443038
132.0,-0.677326011439888,0.741391904921127,-0.436202432791059
135.0,-0.7145354141201,0.669277031322018,-0.439496447771953
138.0,-0.751216743679547,0.597371332668509,-0.442922941394459
141.0,-0.788220991712122,0.526263719824305,-0.447522895710658
144.0,-0.826076100032,0.456306943264516,-0.454732584087796
147.0,-0.867857571950158,0.389398746278347,-0.462309844625777
150.0,-0.826679129023884,0.324760286489455,-0.467405764279515
153.0,-0.744011216028377,0.264386640698051,-0.447627479503727
156.0,-0.66134330303287,0.208537027732661,-0.425363293666115
159.0,-0.578675390037362,0.157446909778632,-0.403101193050512
162.0,-0.496007477041855,0.112017766533725,-0.416544774214323
165.0,-0.413339564046348,0.0729275435095763,-0.447840483971446
168.0,-0.33067165105084,0.0402393920012852,-0.479136193728571
171.0,-0.248003738055333,0.0273466275964835,-0.449999998824567
174.0,-0.165335825059825,0.0220237474095995,-0.299999998653168
177.0,-0.0826679131497706,0.0187283338579794,-0.150000000451309
180.0,0.0,0.0174928404489485,0.0
