Alpha (deg),Cl,Cd,Cm
-180.0,0.0,0.0237292686734004,0.0
-177.0,0.0849936298136054,0.024898729567847,0.120000000361047
-174.0,0.169987258352618,0.0280183350118432,0.239999998922534
-171.0,0.254981355205371,0.0330584331138338,0.360000658682385
-168.0,0.339978835552862,0.0438108098032693,0.400904092109033
-165.0,0.424968147317625,0.073625247503342,0.402260058062793
-162.0,0.509966417640695,0.110828350852066,0.40361616694629
-159.0,0.594950722334026,0.154058024542576,0.411817807589674
-156.0,0.679951255457569,0.20265877258813,0.433718662971506
-153.0,0.76494357499593,0.255774218527145,0.455620946448392
-150.0,0.849936295592636,0.313187230369266,0.474826376716512
-147.0,0.890389347795744,0.374651139694067,0.467044138024366
-144.0,0.841793088493149,0.438269704373915,0.456621592959844
-141.0,0.798480601899488,0.504779689504453,0.446565472994524
-138.0,0.756775424298498,0.572378027076139,0.439033857928533
-135.0,0.716161578729814,0.640728906574764,0.433640354158611
-132.0,0.675458234013295,0.709269398321126,0.428253989857852
-129.0,0.633534333069746,0.776848101892183,0.425977762352862
-126.0,0.590661330208311,0.843092577589914,0.425299540746088
-123.0,0.546720831878273,0.907672830458602,0.425806583316805
-120.0,0.500851274263,0.968512554865792,0.42659221626918
-117.0,0.453630815338125,1.02589380096384,0.42775066831215
-114.0,0.405227505326638,1.07973463345736,0.42909722890452
-111.0,0.355555847101131,1.12904754060181,0.430443408725323
-108.0,0.304688070270675,1.17170338240508,0.430081622304902
-105.0,0.253325343633819,1.20935136873227,0.429334025997205
-102.0,0.201633389613402,1.24181014783305,0.428174105716991
-99.0,0.149979062831838,1.26662700662187,0.425664346696222
-96.0,0.099006122384491,1.28426503855553,0.421454612384495
-93.0,0.048939602743438,1.29595224566127,0.416713232906302
-90.0,-1.91705780092593e-10,1.30161486433545,0.4119713232073
-87.0,-0.0489396024500137,1.29595224569522,0.4022209179976
-84.0,-0.0990061222472981,1.28426503859714,0.392470043656973
-81.0,-0.149979063236517,1.26662700642745,0.382316966679742
-78.0,-0.201633390018082,1.24181014763863,0.370893315745055
-75.0,-0.253325343425996,1.20935136886787,0.358480759302814
-72.0,-0.304688070032101,1.17170338260137,0.34579020624912
-69.0,-0.355555847424852,1.12904754028042,0.332875672149633
-66.0,-0.4052275049634,1.07973463381797,0.318969529669383
-63.0,-0.453630815271758,1.02589380104095,0.305063387316932
-60.0,-0.5008512744109,0.968512554669621,0.291189071394453
-57.0,-0.546720831391795,0.907672831103847,0.277378407877631
-54.0,-0.590661330291933,0.843092577466389,0.263596676979653
-51.0,-0.633534333399977,0.77684810136452,0.249892616563385
-48.0,-0.675458234227013,0.70926939796471,0.236293999185848
-45.0,-0.716161578380787,0.640728907166265,0.222900551368498
-42.0,-0.755138125855737,0.572378027080817,0.209507105112705
-39.0,-0.795524344365342,0.504779689377328,0.181565822094215
-36.0,-0.837837859960484,0.438269705048624,0.134110142591067
-33.0,-0.88576181848298,0.374651139488934,0.0845397869048649
-30.0,-0.99948626062802,0.285852839688919,0.0552440548688402
-29.3939393939394,-1.02921483424397,0.265243549704256,0.0513845941401581
-28.7878787878788,-1.05902373240969,0.244543325159268,0.0475247949735901
-28.1818181818182,-1.0889283053772,0.223721631750814,0.0436647056261985
-27.5757575757576,-1.09804210302469,0.211012746064098,0.0401642656685579
-26.969696969697,-1.09821456400531,0.201827628793661,0.0368190627744209
-26.3636363636364,-1.09841769992788,0.192638438034125,0.0334769605358478
-25.7575757575758,-1.09871722890152,0.183437478149823,0.0301279031695998
-25.1515151515151,-1.0990661346589,0.174232328855853,0.0267777268930061
-24.5454545454545,-1.09956676135802,0.165022496734545,0.023427145563757
-23.9393939393939,-1.10025315891919,0.155925107854627,0.0201635401109176
-23.3333333333333,-1.1020748584723,0.147878446091285,0.0176869884925564
-22.7272727272727,-1.10413610924475,0.13981664288045,0.0152101939254934
-22.1212121212121,-1.10653900903532,0.13172959973533,0.0127329217536691
-21.5151515151515,-1.10945328267355,0.123595670883599,0.0102544916344582
-20.9090909090909,-1.11136062608624,0.115477630371947,0.00777176271481967
-20.3030303030303,-1.1131032779501,0.107458628343906,0.00529842142846333
-19.6969696969697,-1.1147821022156,0.100188202340772,0.00347729211749329
-19.0909090909091,-1.11639709887313,0.0936663524754547,0.00229488333586445
-18.4848484848485,-1.11801209553065,0.0871445026101376,0.00111292860049967
-17.8787878787879,-1.11903638824424,0.0808060875006495,5.45837620215551e-05
-17.2727272727273,-1.11769786468091,0.0752014115701092,-0.000508565899292937
-16.6666666666667,-1.11635934111757,0.0695967356395689,-0.00107246104673623
-16.0606060606061,-1.11502081755424,0.0639920597090287,-0.00163701073908562
-15.4545454545455,-1.11473485306635,0.0590011007465272,-0.00156342737378395
-14.8484848484848,-1.11456583962605,0.0540783325811085,-0.00141902663330937
-14.2424242424242,-1.11456384351411,0.0491555644156898,-0.00127473014915042
-13.6363636363636,-1.11111613046078,0.0445292091498665,-0.00184053495459895
-13.030303030303,-1.10533717193151,0.0400681991131952,-0.00287970001596785
-12.4242424242424,-1.09950321609697,0.0356200567063696,-0.00399674116662233
-11.8181818181818,-1.07921948187246,0.0316496771688113,-0.00663757785069153
-11.2121212121212,-1.02579932818538,0.0287815418815804,-0.0129572613932597
-10.6060606060606,-0.972329564686078,0.025922695681429,-0.019266550706926
-10.0,-0.918566689532394,0.023073406747123,-0.0255756962683636
-9.39393939393939,-0.850442659555601,0.0214036779406535,-0.0310650919780876
-8.78787878787879,-0.782242104693202,0.0197370231390731,-0.0365275750917598
-8.18181818181818,-0.714025461868233,0.0180685134388396,-0.0419814983401018
-7.57575757575758,-0.642282160960236,0.0168177846673514,-0.0469294368601041
-6.96969696969697,-0.569765060276401,0.0157462721861675,-0.0516471561014623
-6.36363636363636,-0.497228589732966,0.0146747868396717,-0.0563479635788382
-5.75757575757576,-0.420230608785823,0.0138112378764161,-0.0612296308434241
-5.15151515151515,-0.336552171874881,0.0132595571878655,-0.0664086154457161
-4.54545454545454,-0.252873087415031,0.012707886515616,-0.0715876493237063
-3.93939393939394,-0.169004314481532,0.0121871910706135,-0.0766986889703548
-3.33333333333333,-0.0834355346601854,0.0119451677661122,-0.0811932781400969
-2.72727272727273,0.00213440423059909,0.0117031511366115,-0.0857006362550257
-2.12121212121212,0.0877075447620897,0.0114611421030105,-0.0902222642179451
-1.51515151515152,0.172078722912625,0.011336297965059,-0.0941531997861554
-0.909090909090912,0.255582683217718,0.0112509959555129,-0.0978911377615757
-0.303030303030302,0.338283128234412,0.0112237761960563,-0.101308438619503
0.303030303030302,0.42052346131027,0.0112265727810052,-0.104556185155306
0.909090909090912,0.502270279832675,0.0112593848103256,-0.107634313547563
1.51515151515152,0.58319665848164,0.0113337729038605,-0.110477115528942
2.12121212121212,0.663794247538829,0.0114238904845556,-0.113228367157422
2.72727272727273,0.743639834906605,0.0115475694333528,-0.115779476422154
3.33333333333333,0.822961018578142,0.0116949833628892,-0.118209798161472
3.93939393939394,0.901853030103435,0.0118618211597191,-0.120541299620756
4.54545454545455,0.979790185357115,0.0120696161556042,-0.122685013890924
5.15151515151515,1.05728745200372,0.0122970439190387,-0.124749547367856
5.75757575757576,1.13378063969017,0.0125698286564437,-0.126639076013684
6.36363636363637,1.2094305284352,0.0128772203516923,-0.128382561447261
6.96969696969697,1.28451783186443,0.0132075934298245,-0.130028687646237
7.57575757575757,1.35775131317421,0.0136147078607055,-0.131404037591767
8.18181818181818,1.43017564569396,0.0140519537179133,-0.132663192853318
8.78787878787879,1.50093840919134,0.0145500699824626,-0.133684444292797
9.39393939393939,1.569453225748,0.0151321247729658,-0.134414301567559
10.0,1.63675966319096,0.0157595332825673,-0.134987353789377
10.6060606060606,1.69950193678743,0.0165674389470293,-0.135017177021887
11.2121212121212,1.76005845164542,0.0174768883480205,-0.134837508250731
11.8181818181818,1.81655905811627,0.0185747969390458,-0.13426868874424
12.4242424242424,1.86703312922173,0.0200039636093582,-0.133257729289385
13.030303030303,1.91436406791487,0.0216178273273192,-0.132023372037947
13.6363636363636,1.94956375825254,0.024011497135029,-0.130142715984264
14.2424242424242,1.97709773889101,0.0270887231973026,-0.128012381051418
14.8484848484848,1.99222322852533,0.0312083270110828,-0.125503255769416
15.4545454545455,1.99301566602994,0.0364825712843715,-0.123116024786788
16.0606060606061,1.98665811508681,0.0423795687903762,-0.120833950168101
16.6666666666667,1.9606855682631,0.0502409019835959,-0.119100928825616
17.2727272727273,1.93490012145819,0.0581022351768156,-0.117372335276478
17.8787878787879,1.90920539088187,0.0659635683700353,-0.115648461229852
18.4848484848485,1.85945508083111,0.0767624907418554,-0.115396008887035
19.0909090909091,1.80374255542165,0.0882958102525543,-0.115519473966247
19.6969696969697,1.74809214765747,0.0998291297632532,-0.115656405816792
20.3030303030303,1.70035171495016,0.11218136451828,-0.117377564194684
20.9090909090909,1.66050432645962,0.125352514394116,-0.120669210754193
21.5151515151515,1.62069668966438,0.138523664269953,-0.123960806473463
22.1212121212121,1.58093473557624,0.151694814145789,-0.12725234439351
22.7272727272727,1.54122563684614,0.164865964021626,-0.130543816291313
23.3333333333333,1.50157815062501,0.178037113897462,-0.133835212417228
23.9393939393939,1.46200308167726,0.191373284401457,-0.137126521194605
24.5454545454545,1.44295998322734,0.203918713535414,-0.140782033049843
25.1515151515151,1.42632760857601,0.216376513729184,-0.144477736352303
25.7575757575758,1.4099438679454,0.228832045097843,-0.148173071058991
26.3636363636364,1.39375105872556,0.241284971119151,-0.151867944757723
26.969696969697,1.37784517992979,0.253708747237986,-0.155562240364756
27.5757575757576,1.3620093706626,0.26613942106086,-0.159255806285732
28.1818181818182,1.34815971386595,0.278426340631654,-0.162869089777625
28.7878787878788,1.33873947893882,0.290353035740961,-0.166299519347188
29.3939393939394,1.32938098548013,0.30226724781884,-0.169734578372117
30.0,1.32008191157246,0.314174459360906,-0.173175065270248
33.0,1.266819725898,0.374651139488934,-0.190501096546496
36.0,1.19818180685312,0.438269705048624,-0.208117546308212
39.0,1.13743460379733,0.504779689377328,-0.22540386009287
42.0,1.07931647981375,0.572378027080818,-0.240000144547381
45.0,1.02308796911541,0.640728907166265,-0.252591294916865
48.0,0.964940334610018,0.70926939796471,-0.26518245066865
51.0,0.905049047714253,0.77684810136452,-0.277094784275721
54.0,0.843801900417047,0.843092577466389,-0.288658249268164
57.0,0.781029759131135,0.907672831103847,-0.29996602003134
60.0,0.715501820586999,0.968512554669622,-0.311203793923077
63.0,0.648044021816797,1.02589380104095,-0.322287574776847
66.0,0.578896435661999,1.07973463381797,-0.333294359176937
69.0,0.507936924892646,1.12904754028042,-0.344301143586634
72.0,0.43526867147443,1.17170338260137,-0.354783466462093
75.0,0.361893347751423,1.20935136886787,-0.365147326029743
78.0,0.28804770002583,1.24181014763863,-0.375367952269025
81.0,0.214255804623596,1.26662700642745,-0.385095221786311
84.0,0.14143731749614,1.28426503859714,-0.394191518163844
87.0,0.0699137177857337,1.29595224569522,-0.403081683694991
90.0,2.73865267365972e-10,1.30161486433545,-0.411971323210672
93.0,-0.0489396027434378,1.29595224566127,-0.416713232906302
96.0,-0.0990061223844913,1.28426503855553,-0.421454612384495
99.0,-0.149979062831838,1.26662700662187,-0.425664346696222
102.0,-0.201633389613402,1.24181014783305,-0.428174105716991
105.0,-0.253325343633819,1.20935136873227,-0.429334025997205
108.0,-0.304688070270675,1.17170338240508,-0.430081622304902
111.0,-0.355555847101131,1.12904754060181,-0.430443408725323
114.0,-0.405227505326638,1.07973463345736,-0.42909722890452
117.0,-0.453630815338125,1.02589380096384,-0.42775066831215
120.0,-0.500851274263,0.968512554865791,-0.42659221626918
123.0,-0.546720831878273,0.907672830458602,-0.425806583316805
126.0,-0.59066133020831,0.843092577589915,-0.425299540746088
129.0,-0.633534333069747,0.776848101892183,-0.425977762352862
132.0,-0.675458234013296,0.709269398321125,-0.428253989857852
135.0,-0.716161578729814,0.640728906574764,-0.433640354158611
138.0,-0.756775424298498,0.572378027076139,-0.439033857928533
141.0,-0.798480601899489,0.504779689504453,-0.446565472994524
144.0,-0.841793088493149,0.438269704373915,-0.456621592959844
147.0,-0.890389347795744,0.374651139694067,-0.467044138024366
150.0,-0.849936295592636,0.313187230369265,-0.474826376716512
153.0,-0.764942665937633,0.255773636196689,-0.455620712167781
156.0,-0.679949036282631,0.202657442175556,-0.433718091142434
159.0,-0.594955406627629,0.154060623364808,-0.411819014425376
162.0,-0.509961776972627,0.11082623661664,-0.42361609303878
165.0,-0.424968147317625,0.0736252475033421,-0.452260058229319
168.0,-0.339974517662622,0.0438094533565637,-0.480904023419858
171.0,-0.25498088800762,0.0330584029888216,-0.449999998824567
174.0,-0.169987258352618,0.0280183350118432,-0.299999998653168
177.0,-0.0849936298136054,0.024898729567847,-0.150000000451309
180.0,0.0,0.0237292686734004,0.0
