Alpha (deg),Cl,Cd,Cm
-180.0,0.0,0.0485365970495091,0.0
-177.0,0.105009764827302,0.0494562869406118,0.11578492051239
-174.0,0.210368871936806,0.0519089579129028,0.231770640469272
-171.0,0.315728180482053,0.0558678519202361,0.347756557004583
-168.0,0.421016332778859,0.0634299391600656,0.388874898767478
-165.0,0.526260280114062,0.0821938961664176,0.392477341119259
-162.0,0.631512084543189,0.11433987841887,0.395993742523599
-159.0,0.728398979457758,0.152674470573253,0.403993138906823
-156.0,0.807705013071299,0.201440457806368,0.420991071458761
-153.0,0.884561392043873,0.253735435827676,0.437866648805431
-150.0,0.954997237287067,0.309383999941043,0.452162703332211
-147.0,0.974765493318165,0.370877912645317,0.438898187215931
-144.0,0.913324701437002,0.43507330183502,0.422568881376655
-141.0,0.858397446449681,0.500975089072186,0.40601689425755
-138.0,0.806871979284473,0.568184961080796,0.394752373191667
-135.0,0.757663379339577,0.636203994802548,0.386895469137241
-132.0,0.709607684589767,0.704344254010034,0.379052765511029
-129.0,0.661643352492936,0.771485675751058,0.374971661641628
-126.0,0.613419024004352,0.837162024310436,0.37349780832454
-123.0,0.564770574413189,0.901414804616081,0.373266674993647
-120.0,0.515139606937259,0.962457622191618,0.373405640871088
-117.0,0.464380174686129,1.0190333564971,0.374723101462712
-114.0,0.412980735091037,1.07257588027983,0.376443816491667
-111.0,0.360904570573054,1.12222462901714,0.3781620001844
-108.0,0.308166191601411,1.16462259609248,0.378774089267599
-105.0,0.255257560724355,1.20195562814797,0.379079957933357
-102.0,0.202373752914861,1.23481282833874,0.379122923837976
-99.0,0.15005435577892,1.260141738309,0.377942862331227
-96.0,0.0989117216744377,1.27745252718875,0.375040445290472
-93.0,0.0488275930909082,1.28960692358153,0.371755616579705
-90.0,-7.15992653640702e-07,1.29650319774748,0.368470767829588
-87.0,-0.0488282421078364,1.2896067514321,0.359941678557091
-84.0,-0.0989120813847628,1.27745247300777,0.351414101500785
-81.0,-0.150054398563858,1.2601418044912,0.342587948322355
-78.0,-0.202373660678053,1.23481307586104,0.332401673621931
-75.0,-0.255257469148778,1.20195588059898,0.321252064880985
-72.0,-0.3081661012294,1.16462284910925,0.309904077789135
-69.0,-0.360903149081762,1.12222485876416,0.298350965787883
-66.0,-0.412975265612642,1.07257568888213,0.286031774508372
-63.0,-0.464370666361402,1.01903273229348,0.273712583780134
-60.0,-0.515126088544766,0.962456501671552,0.261468036395963
-57.0,-0.564761034631304,0.901414037918862,0.249127509455779
-54.0,-0.613413552321519,0.837161782454166,0.236801027101612
-51.0,-0.661641942007398,0.771485975954678,0.224541223230979
-48.0,-0.709607619373053,0.704344772311984,0.212716527602466
-45.0,-0.757663308989591,0.636204530812717,0.201249204111388
-42.0,-0.844371913175235,0.568185522709128,0.189778997285589
-39.0,-0.933397292003478,0.500975648530476,0.164135325754076
-36.0,-1.02582451620074,0.435073918800262,0.11717314629881
-33.0,-1.12476531598335,0.370878709071222,0.0686332874114978
-30.0,-1.22608856376388,0.282232047401588,0.0455180127368655
-29.3939393939394,-1.24130778493868,0.261461268106839,0.0420127890051711
-28.7878787878788,-1.25796973776623,0.241453569570382,0.0385075652734766
-28.1818181818182,-1.27526055632816,0.221511095863604,0.0350023415417821
-27.5757575757576,-1.2808940353959,0.209925386569542,0.0317973455955064
-26.969696969697,-1.28195098631414,0.201925479528883,0.0287210186745458
-26.3636363636364,-1.28357344463061,0.194867470329246,0.0256446917535852
-25.7575757575758,-1.28571308480795,0.187771010030134,0.0225683648326247
-25.1515151515151,-1.28832572158741,0.180606634239299,0.0194920379116641
-24.5454545454545,-1.28568893819893,0.173379817734744,0.0164157109907035
-23.9393939393939,-1.28144659311379,0.166095329010593,0.0133859484429708
-23.3333333333333,-1.27659906070162,0.158792359066217,0.0107752654649909
-22.7272727272727,-1.27210258340357,0.151502290220581,0.00816458248701108
-22.1212121212121,-1.2679767171913,0.144224536331245,0.00555389950903124
-21.5151515151515,-1.26168513617895,0.136958538783457,0.00280073579647767
-20.9090909090909,-1.25399780613308,0.129703763524634,-0.000252324555070637
-20.3030303030303,-1.24631047608721,0.122459698079623,-0.00323144914242072
-19.6969696969697,-1.23636980904908,0.116311408954368,-0.00636113676195057
-19.0909090909091,-1.21919698560732,0.111787567586105,-0.00769377439220209
-18.4848484848485,-1.19429563442434,0.106828898237386,-0.00905698264986986
-17.8787878787879,-1.16602592902301,0.102219040367589,-0.0103247424679558
-17.2727272727273,-1.13825654108186,0.0973806827700479,-0.0114151856662802
-16.6666666666667,-1.11056804659503,0.0925534906720984,-0.0124688966254414
-16.0606060606061,-1.08077203900218,0.0879530163991914,-0.0134848968387939
-15.4545454545455,-1.05442169885383,0.0834267148478234,-0.0141109301804959
-14.8484848484848,-1.02766724902751,0.0790013469142572,-0.0146931933717432
-14.2424242424242,-0.999679633149855,0.0746950766442276,-0.0152180337211585
-13.6363636363636,-0.972901690260844,0.0705299666731558,-0.0155670232015029
-13.030303030303,-0.94755965513239,0.0664210584346708,-0.015598300986092
-12.4242424242424,-0.919974757135575,0.0625002542149336,-0.015758376765128
-11.8181818181818,-0.893276763535551,0.0585807700166872,-0.0157262333946564
-11.2121212121212,-0.863678409014162,0.0550079034707678,-0.015319063199091
-10.6060606060606,-0.837803076636833,0.0513054558449453,-0.014233257337474
-10.0,-0.812769421139369,0.0476816732645739,-0.0124588360154804
-9.39393939393939,-0.757972653824402,0.0447786428432544,-0.0171104670911925
-8.78787878787879,-0.699590270096833,0.0418753894047622,-0.0222188997019332
-8.18181818181818,-0.638766988578531,0.0389964377269629,-0.0275884362861774
-7.57575757575758,-0.56710546084861,0.0369399228981355,-0.0340268917103656
-6.96969696969697,-0.489536675365355,0.0352063650919254,-0.0410145997287427
-6.36363636363636,-0.411227012686957,0.0334736823858219,-0.0480685079405229
-5.75757575757576,-0.332643790816586,0.0320098559986803,-0.0546332256518766
-5.15151515151515,-0.25209742062886,0.030863219362227,-0.060915473680131
-4.54545454545454,-0.171906948382994,0.0297308422549951,-0.067029906879224
-3.93939393939394,-0.0914630126263168,0.028672719447934,-0.0729593461269638
-3.33333333333333,-0.00620606033739469,0.0281699300455827,-0.0787429545652762
-2.72727272727273,0.076416567421213,0.0276988567048099,-0.0841877852366759
-2.12121212121212,0.158409663012652,0.0272267107218343,-0.0896206558717623
-1.51515151515152,0.239843618745801,0.0269619539124092,-0.0954202591018048
-0.909090909090912,0.324548453000714,0.0268077451465977,-0.100953480770244
-0.303030303030302,0.410979126105702,0.0267294540845021,-0.105874281604922
0.303030303030302,0.4971708340123,0.0267090100908129,-0.110581358778545
0.909090909090912,0.583119334853625,0.0267253496627156,-0.115064997692371
1.51515151515152,0.668016800381163,0.0268228771889059,-0.119147252517744
2.12121212121212,0.752286457492618,0.0269453450446844,-0.123072174201475
2.72727272727273,0.835541923490432,0.0271302858503953,-0.126610530119575
3.33333333333333,0.917987940501499,0.0273654345736117,-0.12996435319001
3.93939393939394,0.999810620070175,0.0276052261607621,-0.133116424939212
4.54545454545455,1.08022302672861,0.0279377585397442,-0.135949586620631
5.15151515151515,1.16004925179119,0.0283016969368019,-0.13860986144274
5.75757575757576,1.23854809736554,0.0287092561506125,-0.140979274324238
6.36363636363637,1.31572208219099,0.0292138385221642,-0.143087234036556
6.96969696969697,1.39204502454359,0.0297389040924252,-0.145012630558085
7.57575757575757,1.46568107556166,0.0304241384641561,-0.146475437793797
8.18181818181818,1.53782354463776,0.0312087728608592,-0.147677037905929
8.78787878787879,1.60756342002657,0.0321430856804575,-0.148529301920865
9.39393939393939,1.67360136576617,0.0333611139512396,-0.148977768872093
10.0,1.7370774263323,0.0347198896745367,-0.149138513421047
10.6060606060606,1.79294202745556,0.036933232863921,-0.148731028020602
11.2121212121212,1.84272518107018,0.0397509577846588,-0.147737062729048
11.8181818181818,1.87079570841028,0.0436739721955351,-0.14635057293215
12.4242424242424,1.89278606765535,0.0487091851722236,-0.144991986035659
13.030303030303,1.91532711396205,0.0540678709400873,-0.143731302295946
13.6363636363636,1.92875610882166,0.0602496093160458,-0.141318933586429
14.2424242424242,1.9460321283862,0.0661404272280127,-0.139286548168721
14.8484848484848,1.96875814618407,0.0715345553915093,-0.137966533044858
15.4545454545455,1.98521918705316,0.0776086695658731,-0.136448562115395
16.0606060606061,1.99612938541406,0.0843117172472679,-0.134870484430926
16.6666666666667,1.99219801653993,0.0931714069492647,-0.133653564605214
17.2727272727273,1.99071004357542,0.101755192205524,-0.132515891282489
17.8787878787879,1.98335673110984,0.110777465840202,-0.131381420967693
18.4848484848485,1.95330202103699,0.120631036300818,-0.131796557685011
19.0909090909091,1.91634288913238,0.130460928934322,-0.132678908569252
19.6969696969697,1.87884629758376,0.140330826442235,-0.133638187554063
20.3030303030303,1.84997723712813,0.150070553422847,-0.135314356363901
20.9090909090909,1.83014999988948,0.159603422027132,-0.137586133018732
21.5151515151515,1.81124640276109,0.168930076211252,-0.13994294149572
22.1212121212121,1.79370057643657,0.177905164345462,-0.142396703611479
22.7272727272727,1.77707323892271,0.187056849901133,-0.144933314268527
23.3333333333333,1.76069922865812,0.19682221007919,-0.147498768920132
23.9393939393939,1.74435902791936,0.206575243025674,-0.150148415695984
24.5454545454545,1.73807269974591,0.216795759023193,-0.153757557416928
25.1515151515151,1.72941117202707,0.2274684704559,-0.157665596288319
25.7575757575758,1.71453736866661,0.238290283500591,-0.161642445283244
26.3636363636364,1.69961335223494,0.249142601852671,-0.165603998805756
26.969696969697,1.68472243130899,0.259974386517459,-0.169550017575608
27.5757575757576,1.66985303514383,0.270797937556568,-0.173473802737942
28.1818181818182,1.65272928586876,0.281630339513412,-0.177333088035538
28.7878787878788,1.63953244804897,0.292482918326582,-0.181081211692879
29.3939393939394,1.63226425700647,0.303366028707082,-0.1848239469137
30.0,1.62064442309403,0.314469543488725,-0.18819907235376
33.0,1.54110012709416,0.372714740599452,-0.204294042774739
36.0,1.4160907373787,0.436233812750218,-0.220459848479147
39.0,1.30035447194711,0.501824136061829,-0.236319436349854
42.0,1.18961954572887,0.568818267214774,-0.249116852571474
45.0,1.08203849050583,0.636583943713316,-0.259865128862026
48.0,1.01359764769011,0.704494834054947,-0.270603052703949
51.0,0.945204970511934,0.771485975954679,-0.280854339139332
54.0,0.876314893054873,0.837161782454166,-0.290814898581966
57.0,0.806818928954714,0.901414037918862,-0.300591282010218
60.0,0.735919392975332,0.962456501671553,-0.310375245074618
63.0,0.663405391103981,1.01903273229348,-0.320214055760797
66.0,0.589977046191588,1.07257568888213,-0.329560293404444
69.0,0.515581930483123,1.12222485876416,-0.338952541143706
72.0,0.440241594035377,1.16462284910925,-0.348219253200108
75.0,0.364658465557219,1.20195588059898,-0.357477098865759
78.0,0.289110798552334,1.23481307586104,-0.366678377781185
81.0,0.214368764412405,1.2601418044912,-0.375485959547219
84.0,0.141306388553961,1.27745247300777,-0.383746095489434
87.0,0.0697562322911372,1.2896067514321,-0.391880465849569
90.0,5.74981339027175e-07,1.29650319774748,-0.400028871678832
93.0,-0.0488277161626,1.28960692358153,-0.403950185547556
96.0,-0.0989119116496382,1.27745252718875,-0.407871475051429
99.0,-0.150054613768184,1.260141738309,-0.411389327675222
102.0,-0.202374027353429,1.23481282833874,-0.413203078787004
105.0,-0.255257836587641,1.20195562814797,-0.413783809914245
108.0,-0.308166468926305,1.16462259609248,-0.414083989245589
111.0,-0.360903372587311,1.12222462901714,-0.414073532991791
114.0,-0.412975083118563,1.07257588027983,-0.412897973447211
117.0,-0.464370077058843,1.0190333564971,-0.411722481136772
120.0,-0.515125114524573,0.962457622191618,-0.4109405877721
123.0,-0.564760477592734,0.901414804616081,-0.411253161060883
126.0,-0.613413379657145,0.837162024310436,-0.411931550112798
129.0,-0.661642153098962,0.771485675751057,-0.413889285060266
132.0,-0.709607957236724,0.704344254010034,-0.418407111810697
135.0,-0.757663646663405,0.636203994802548,-0.426749560038534
138.0,-0.806872251146012,0.568184961080795,-0.435143602838933
141.0,-0.858397710243911,0.500975089072185,-0.44694495844847
144.0,-0.913324928121805,0.43507330183502,-0.463853691256862
147.0,-0.974765728892519,0.370877912645317,-0.480579017375592
150.0,-0.954997237287067,0.309383999941042,-0.493914526906785
153.0,-0.884560671582423,0.253734981969083,-0.48178123274772
156.0,-0.807703131370688,0.201439421069831,-0.466730865077547
159.0,-0.728403064355874,0.152676494756243,-0.451572041880903
162.0,-0.631503381681902,0.114338337693542,-0.452417897706642
165.0,-0.526248697565842,0.0821938961664177,-0.461189844074729
168.0,-0.420994013398712,0.0634295355770831,-0.475144052643209
171.0,-0.315706927134972,0.0558678282768318,-0.434689145747933
174.0,-0.210354994341064,0.0519089579129028,-0.289708821778742
177.0,-0.105002852932339,0.0494562869406118,-0.144728034825269
180.0,0.0,0.0485365970495091,0.0
