Alpha (deg),Cl,Cd,Cm
-180.0,6.66837016727444e-05,0.284801209438855,-6.66837016727444e-05
-177.0,0.057230781246991,0.284283152911434,0.0181981318600291
-174.0,0.115435260510099,0.28289333421869,0.0372571275318618
-171.0,0.173639554024248,0.280622199236131,0.0563164633708879
-168.0,0.231621535871098,0.28376269143903,0.0564573081996768
-165.0,0.289496275401416,0.283966898778708,0.0472883727123846
-162.0,0.347367461666635,0.276118631859417,0.038275339258707
-159.0,0.380494825561929,0.27691319529243,0.0279178149032128
-156.0,0.364130626562395,0.293953129863182,0.0153805641771286
-153.0,0.347769685346596,0.309376183976957,0.014187419557597
-150.0,0.331408585057589,0.323262722939947,0.0132221941230556
-147.0,0.26570975871206,0.350123776011957,0.0119469013239767
-144.0,0.250096030779472,0.36086617062908,0.010771361041384
-141.0,0.230732526336741,0.378315739781059,0.00963058914622135
-138.0,0.216035167200702,0.397760787473656,0.00916474081460909
-135.0,0.203312509669166,0.418141439970275,0.00901053054190169
-132.0,0.18992888426524,0.438499477627343,0.00885633282313661
-129.0,0.176493246812631,0.458495549652683,0.0087939129608729
-126.0,0.163206789696634,0.477429571283203,0.0089913214125211
-123.0,0.150163080815033,0.497182651452555,0.0091725291177172
-120.0,0.137681458917172,0.518795814258861,0.00935084662193614
-117.0,0.123462377990624,0.533559403939012,0.00964091399734994
-114.0,0.109609746333408,0.550076677955034,0.00992949587781894
-111.0,0.0961440998821812,0.56886328479749,0.0102228644852673
-108.0,0.0823330624815744,0.581969734758176,0.0104721274146995
-105.0,0.0682570704755942,0.593068891230706,0.0106947543743621
-102.0,0.0541668662902554,0.60679393402424,0.0109276095822806
-99.0,0.0405042519763786,0.618777753777236,0.0110952655988185
-96.0,0.0276733845659806,0.623092755333157,0.0111080828465794
-93.0,0.0142356590263926,0.630462407576559,0.011131666069564
-90.0,6.44254337711692e-05,0.640990471244619,0.0111564620027107
-87.0,-0.0141053208290242,0.63046129824514,0.0107092040493742
-84.0,-0.027540669400004,0.623092413241643,0.0102645160825063
-81.0,-0.0403692100706549,0.618778174351615,0.00982967718189423
-78.0,-0.0540309643618974,0.606795463863463,0.00927266321633009
-75.0,-0.0681211666928243,0.593070412526454,0.00866644235829618
-72.0,-0.0821971564917266,0.581971255097219,0.00807198282350579
-69.0,-0.0960007945788492,0.56886465932874,0.00746870057551959
-66.0,-0.109444139575241,0.550075566642513,0.00684846376878368
-63.0,-0.123274454388278,0.53355582680186,0.00623858201478321
-60.0,-0.137471035310993,0.518789358816024,0.00563916048233209
-57.0,-0.149974976784512,0.497178395990056,0.00511206482101668
-54.0,-0.163041113139981,0.477428260415934,0.00459384995733548
-51.0,-0.176350009817551,0.458497152708591,0.00408558295560294
-48.0,-0.189793144784801,0.438502160207637,0.00367525124647931
-45.0,-0.203176778742302,0.418144091607858,0.00331239344978636
-42.0,-0.215899429061524,0.397763392293848,0.00295473552555576
-39.0,-0.230596344948851,0.378318104004,0.00275346308678508
-36.0,-0.249959904118848,0.3608684319796,0.00292567437862026
-33.0,-0.265573618705722,0.350123891685555,0.0114793322471103
-30.0,-0.275045280898291,0.337229760352253,0.020385590566736
-29.3939393939394,-0.270130942937911,0.340333954076724,0.0191858967463295
-28.7878787878788,-0.265290072731147,0.343221733958277,0.017986202925923
-28.1818181818182,-0.260516763466545,0.345356636374812,0.0167865091055166
-27.5757575757576,-0.264074031409497,0.344748273313549,0.0154492596869178
-26.969696969697,-0.271246398698456,0.341723146454954,0.0140530578808132
-26.3636363636364,-0.278496685157253,0.338673907122015,0.0126568560747086
-25.7575757575758,-0.285830142023745,0.335602334522567,0.0112606542686039
-25.1515151515151,-0.29325250324462,0.332510037021252,0.00986445246249932
-24.5454545454545,-0.300770042244983,0.329398472164693,0.00846825065639471
-23.9393939393939,-0.308490295117675,0.326232000964712,0.00705071441515487
-23.3333333333333,-0.317246913627433,0.322711708628072,0.0054411681611605
-22.7272727272727,-0.326162849964863,0.319167735276801,0.00383162190716615
-22.1212121212121,-0.335252924282773,0.315601091941154,0.00222207565317179
-21.5151515151515,-0.342702137778394,0.312012732906105,0.000547258049303284
-20.9090909090909,-0.34913544561386,0.308403559637379,-0.000532250599404473
-20.3030303030303,-0.355568753449327,0.304774424385979,-0.00226763271237795
-19.6969696969697,-0.356970773542142,0.301831750921987,-0.00445904518701871
-19.0909090909091,-0.34602668201034,0.301743499071779,-0.00508356919431672
-18.4848484848485,-0.349698415901962,0.299990377600369,-0.00574080398087674
-17.8787878787879,-0.341359918972177,0.299641348460007,-0.00619203998902327
-17.2727272727273,-0.340231104941834,0.298533441023743,-0.00651797613703847
-16.6666666666667,-0.339422134712059,0.297467976747249,-0.00679141083181857
-16.0606060606061,-0.330280289995584,0.297266267282435,-0.0070126689888826
-15.4545454545455,-0.32723693378018,0.296287709359166,-0.0073486790356666
-14.8484848484848,-0.321759627642799,0.2955753866643,-0.00769700888254662
-14.2424242424242,-0.311406518884005,0.295314463757543,-0.00796158166599902
-13.6363636363636,-0.302049689548045,0.294865456824211,-0.00841791751927807
-13.030303030303,-0.29584585811127,0.294149306691809,-0.00871046022648801
-12.4242424242424,-0.280773994148611,0.29414701005745,-0.0092039760339747
-11.8181818181818,-0.270530413120595,0.293671408806113,-0.00952899052805928
-11.2121212121212,-0.254352604279287,0.293406315317634,-0.00976822973526066
-10.6060606060606,-0.24657287826356,0.292667853353344,-0.00955532797831544
-10.0,-0.240599197831251,0.292252839380045,-0.00883986991653517
-9.39393939393939,-0.225841890900791,0.29212466483896,-0.00908767844035653
-8.78787878787879,-0.201726332764369,0.292079917304309,-0.0107766033100582
-8.18181818181818,-0.168257484199412,0.29222116644595,-0.0132892585098194
-7.57575757575758,-0.140296121312069,0.29245064274952,-0.0152830122964937
-6.96969696969697,-0.112996023366332,0.292593588567687,-0.0173419222054703
-6.36363636363636,-0.0839439246729068,0.292763447081009,-0.0196096803614886
-5.75757575757576,-0.0577074680111089,0.293054053258667,-0.0213467833148246
-5.15151515151515,-0.0307688646150288,0.293164839716785,-0.0237117146263409
-4.54545454545454,-0.00672815455103116,0.293353055101222,-0.0255472240268875
-3.93939393939394,-0.00177298712645515,0.293590873778937,-0.0268082124888239
-3.33333333333333,0.0142909887309282,0.293649929495011,-0.0276910129071598
-2.72727272727273,0.0490060016629789,0.293841264716401,-0.0277672903626511
-2.12121212121212,0.0666036947392122,0.294032437084456,-0.0275998922721442
-1.51515151515152,0.0829823782307039,0.294057972753637,-0.0274993653276105
-0.909090909090912,0.0964624658949972,0.294204318768977,-0.0273070430756208
-0.303030303030302,0.108611983482654,0.29423606269264,-0.0271106369199608
0.303030303030302,0.123742376381559,0.294325163017028,-0.0270805590867442
0.909090909090912,0.14087432467404,0.294386722043003,-0.0271326906698621
1.51515151515152,0.158925136678777,0.294437824931367,-0.0273104907166055
2.12121212121212,0.176143659681658,0.294471834062738,-0.0275389136956546
2.72727272727273,0.193996538731596,0.294525279107448,-0.0276599698924283
3.33333333333333,0.211648414389792,0.294618214140656,-0.0279443287272923
3.93939393939394,0.229369271402437,0.294597346717029,-0.0281269926555332
4.54545454545455,0.2471442019872,0.294655020115179,-0.0284621578718806
5.15151515151515,0.264991857641319,0.294714644516775,-0.0286514283687226
5.75757575757576,0.282805176462077,0.294673902629846,-0.0288938937899507
6.36363636363637,0.300546730243606,0.294759314562847,-0.0291059004758654
6.96969696969697,0.318435539783289,0.294753312590546,-0.0292613898668563
7.57575757575757,0.337018269896835,0.294718451846672,-0.0295630413782783
8.18181818181818,0.354299488223734,0.294747293483045,-0.029561086555094
8.78787878787879,0.373025884927724,0.294675038687774,-0.0297240035996582
9.39393939393939,0.389161937531294,0.294583800452112,-0.0296636980297222
10.0,0.400403606232013,0.294467448735825,-0.0291798923530276
10.6060606060606,0.415372741773097,0.294114359359879,-0.0287797884463296
11.2121212121212,0.421697795874946,0.293666535031666,-0.0265663529306244
11.8181818181818,0.428130651214409,0.293180594395172,-0.0239991840846483
12.4242424242424,0.440736068731105,0.292343073880989,-0.021892338634467
13.030303030303,0.458622525009301,0.291337080681085,-0.0205913082828893
13.6363636363636,0.483151872111485,0.289973517560332,-0.0200983624985053
14.2424242424242,0.499871526400044,0.289305488568683,-0.0193248387084215
14.8484848484848,0.51580901711924,0.288714226461826,-0.0186687952957387
15.4545454545455,0.531639396524293,0.288290443999366,-0.0181960705789044
16.0606060606061,0.541833472538731,0.288429801593304,-0.0176594215624544
16.6666666666667,0.557680265654059,0.288326302345211,-0.0171390355833239
17.2727272727273,0.576224083786449,0.288089205996505,-0.0169104071751488
17.8787878787879,0.579563870920434,0.289277195550941,-0.0166936096151508
18.4848484848485,0.578608672969648,0.290101069695457,-0.0159609244213556
19.0909090909091,0.581433642925666,0.290450355634357,-0.0153969828954548
19.6969696969697,0.582563036196215,0.291047519182093,-0.0151129912295233
20.3030303030303,0.578237293455658,0.292079753079074,-0.0152233908522657
20.9090909090909,0.569763427654526,0.293305888424553,-0.0152955603036707
21.5151515151515,0.564203459955629,0.294165420912548,-0.015669736365982
22.1212121212121,0.562926985063862,0.294419929241385,-0.0163898762545307
22.7272727272727,0.564548156963936,0.294530555799821,-0.0174111633361322
23.3333333333333,0.566968525198926,0.295042057196816,-0.0185449106169452
23.9393939393939,0.569495555663143,0.295514668666566,-0.0199994287894028
24.5454545454545,0.562281723976873,0.29703346313946,-0.0218792683457821
25.1515151515151,0.548943082573204,0.299931217214666,-0.0245782891605541
25.7575757575758,0.533930954961815,0.30329935677809,-0.0276240769645673
26.3636363636364,0.518760415246746,0.306763734428536,-0.0307000600297652
26.969696969697,0.503694285171566,0.3101633324405,-0.0338057928685071
27.5757575757576,0.488696061371688,0.313536955025481,-0.0369113925923914
28.1818181818182,0.471207457021258,0.316905153744328,-0.0400493167101014
28.7878787878788,0.452060672964054,0.320259197331655,-0.0433208776119028
29.3939393939394,0.432987920336084,0.32370956185082,-0.0466893171748199
30.0,0.41883122671701,0.327855257764845,-0.0482092958280709
33.0,0.371571472621099,0.350515825311321,-0.0523317679491849
36.0,0.350698856040055,0.365366063802374,-0.0564591829723103
39.0,0.324448811500572,0.382023857910243,-0.0607331211030109
42.0,0.305523152915678,0.400762203573767,-0.0631998123159724
45.0,0.288540117879417,0.420044756045832,-0.0655562172167601
48.0,0.27058928203878,0.439281499022563,-0.0678608554450793
51.0,0.252105191945082,0.458497152708591,-0.0704969619169638
54.0,0.233134584867273,0.477428260415934,-0.0730921870048905
57.0,0.21451075930222,0.497178395990056,-0.0757911854418025
60.0,0.196690254576325,0.518789358816024,-0.0784860447343681
63.0,0.176374168559581,0.53355582680186,-0.0815843166829972
66.0,0.156581473666299,0.550075566642513,-0.084678947676292
69.0,0.137341654051397,0.56886465932874,-0.087774600907033
72.0,0.117612819879829,0.581971255097219,-0.091056688225349
75.0,0.0975077782092281,0.593070412526454,-0.0943960872547163
78.0,0.0773824344121793,0.606795463863463,-0.0977885933985301
81.0,0.0578645070014214,0.618778174351615,-0.101112861127644
84.0,0.0395275257732005,0.623092413241643,-0.104137806881177
87.0,0.020323480785662,0.63046129824514,-0.107250126991739
90.0,7.07184989173033e-05,0.640990471244619,-0.110364476731605
93.0,-0.0141020696644416,0.630462407576559,-0.110838918205741
96.0,-0.0275396745441999,0.623092755333157,-0.111314158029798
99.0,-0.0403704192918924,0.618777753777236,-0.112034616750232
102.0,-0.0540330039396075,0.60679393402424,-0.1116310426005
105.0,-0.0681232055554815,0.593068891230706,-0.110896977190393
108.0,-0.0821991949254658,0.581969734758176,-0.110336681932369
111.0,-0.0960020321842386,0.56886328479749,-0.109536383564411
114.0,-0.109443132870527,0.550076677955034,-0.108600023694438
117.0,-0.12327120373627,0.533559403939012,-0.107664711750705
120.0,-0.137465632128852,0.518795814258861,-0.106522930138119
123.0,-0.149971900877419,0.497182651452554,-0.10632936812048
126.0,-0.163040160120151,0.477429571283203,-0.105947981054684
129.0,-0.176351181159555,0.458495549652683,-0.104866482739869
132.0,-0.189795025145747,0.438499477627343,-0.106574455681937
135.0,-0.203178660149883,0.418141439970275,-0.108294563513798
138.0,-0.215901309497703,0.397760787473656,-0.110014833942148
141.0,-0.230598683183055,0.378315739781059,-0.115229535857731
144.0,-0.249962254552278,0.36086617062908,-0.128412705458532
147.0,-0.265575966452647,0.350123776011957,-0.141560205741318
150.0,-0.331275217654243,0.323262722939947,-0.15655529776609
153.0,-0.347636678506302,0.309376391921702,-0.175162135502763
156.0,-0.363998139358361,0.293953604865568,-0.193112138097111
159.0,-0.380359600210419,0.276912267870934,-0.211062140691459
162.0,-0.347222116292216,0.276119744300312,-0.191849262067415
165.0,-0.28932835955988,0.283966898778708,-0.154051354858014
168.0,-0.231434602827543,0.283762966323075,-0.107080670683346
171.0,-0.173444206948869,0.280622212911498,-0.0705321393777995
174.0,-0.115260528265729,0.28289333421869,-0.0467132723033195
177.0,-0.0570768491399484,0.284283152911434,-0.022895242285829
180.0,6.66837016727444e-05,0.284801209438855,-6.66837016727444e-05
