Alpha (deg),Cl,Cd,Cm
-180.0,3.94881162172094e-05,0.227151529245548,-3.94881162172094e-05
-177.0,0.0946440139687942,0.22637018659382,0.0363287686299869
-174.0,0.190765953131999,0.224262469468006,0.0739426874844601
-171.0,0.286887683253236,0.220780668955199,0.111558043107716
-168.0,0.382685615273584,0.226330706181529,0.114690194569045
-165.0,0.478326053376668,0.227684531962573,0.101021568614598
-162.0,0.573962492633489,0.215563234050116,0.0878137376453296
-159.0,0.633507823536454,0.220191737853659,0.0732073898120407
-156.0,0.620871057631477,0.250823936150828,0.0562885064833538
-153.0,0.608237958037894,0.279636496398447,0.0525338326495681
-150.0,0.595604679423246,0.306719861751038,0.0494521503790824
-147.0,0.487124304238889,0.35052013887972,0.0450068374909883
-144.0,0.458337663453854,0.372815245859237,0.0408560370532686
-141.0,0.423455862843109,0.404459391688718,0.0368078994581306
-138.0,0.39660325606706,0.439649071459267,0.0351157733085524
-135.0,0.373174879622118,0.476563277197254,0.0345254163904034
-132.0,0.34867747514388,0.513532693864376,0.0339350965410832
-129.0,0.324096666043469,0.549898060377138,0.0336902719439651
-126.0,0.299757376707658,0.584443684607224,0.0343616275870826
-123.0,0.275809911365867,0.620319739905243,0.0349851462493776
-120.0,0.25276962579624,0.65924463658272,0.0356001364905499
-117.0,0.226756202170556,0.686404301524827,0.0366056054254272
-114.0,0.201334539620259,0.716429147302697,0.0376066880443159
-111.0,0.176536845079703,0.750196788134341,0.0386219047382852
-108.0,0.151130830641007,0.774033457752937,0.0394735309117097
-105.0,0.125271489655557,0.794267947342446,0.0402298258003668
-102.0,0.0993891996325195,0.818866657275891,0.0410163222922098
-99.0,0.0742510524833688,0.840271528939931,0.041568399391265
-96.0,0.0505714074672201,0.848220377533355,0.0415794764000504
-93.0,0.0259102298155576,0.861302474154264,0.0416223427928519
-90.0,3.61943731921613e-05,0.87977836958846,0.0416687724789392
-87.0,-0.0258362047958363,0.86130054847963,0.0400711371184632
-84.0,-0.0504931200202226,0.848219785628372,0.0384810903215006
-81.0,-0.0741686511836108,0.840272257139826,0.0369201254927665
-78.0,-0.0993053080635309,0.818869295313612,0.0349308973414833
-75.0,-0.125187592199008,0.794270560368256,0.0327626083860095
-72.0,-0.15104692664479,0.774036067993426,0.0306290478423477
-69.0,-0.176440410879961,0.750199145510662,0.0284597371522099
-66.0,-0.201200397094183,0.7164272512051,0.0262209653440007
-63.0,-0.226584306559098,0.686398210435481,0.0240127695626792
-60.0,-0.252559560931711,0.659233633620476,0.0218354619809288
-57.0,-0.275637707707567,0.620312536057208,0.0199066518087779
-54.0,-0.29962309901524,0.584441474717317,0.0180040645361316
-51.0,-0.324000349785311,0.549900754115845,0.0161308509520787
-48.0,-0.348593862200267,0.513537175154644,0.0146018860905281
-45.0,-0.373091291496924,0.476567667739535,0.0132406458950955
-42.0,-0.396519646916839,0.439653323377926,0.0118947596958503
-39.0,-0.423371517942924,0.404463165429722,0.0110319786951006
-36.0,-0.458253479651062,0.372818716365526,0.0113146847802298
-33.0,-0.487040081592237,0.350520600943671,0.0228621152027726
-30.0,-0.505905537614595,0.325416349429552,0.0349926590620448
-29.3939393939394,-0.498307569472558,0.328726418263519,0.0328264270913766
-28.7878787878788,-0.490926534268224,0.331397468094012,0.0306601951207083
-28.1818181818182,-0.483744990581399,0.333058938315992,0.0284939631500401
-27.5757575757576,-0.489585238976727,0.331038906815115,0.02617292604253
-26.969696969697,-0.501138693679645,0.32603010012632,0.0237855438895625
-26.3636363636364,-0.512922225301815,0.32095009499144,0.021398161736595
-25.7575757575758,-0.524951339509306,0.315804144991316,0.0190107795836275
-25.1515151515151,-0.537242967293456,0.310596999247149,0.01662339743066
-24.5454545454545,-0.54981563259804,0.305332961550131,0.0142360152776925
-23.9393939393939,-0.562858428979195,0.299965470959252,0.0118246233410887
-23.3333333333333,-0.57780545159531,0.294081283541774,0.00919714324311539
-22.7272727272727,-0.593222902156802,0.288127171676918,0.00656966314514209
-22.1212121212121,-0.609154541077289,0.28210612069842,0.00394218304716878
-21.5151515151515,-0.620241105240251,0.276020948384593,0.00112197205735576
-20.9090909090909,-0.628327939747183,0.269874316550975,-0.00078972897978944
-20.3030303030303,-0.636414774254115,0.263668741693637,-0.00355882481441665
-19.6969696969697,-0.637075632593907,0.258589994936489,-0.00705559426369963
-19.0909090909091,-0.61964172639857,0.258152445722872,-0.00805212800362073
-18.4848484848485,-0.623525236806652,0.255031995701381,-0.00910085732739892
-17.8787878787879,-0.609836383470179,0.254176250791442,-0.0098834165313391
-17.2727272727273,-0.606441973418654,0.252107027240205,-0.0104908752263513
-16.6666666666667,-0.603514060697741,0.250106105214981,-0.0110217597068751
-16.0606060606061,-0.588432516430827,0.249495324140106,-0.0114765438674242
-15.4545454545455,-0.582563609551396,0.247651347347553,-0.0120263510258309
-14.8484848484848,-0.57318006908025,0.246237270244628,-0.0125860885326899
-14.2424242424242,-0.556685092015852,0.245547834003183,-0.013023665014575
-13.6363636363636,-0.541803164562146,0.244569254789968,-0.0136941403789658
-13.030303030303,-0.531626575325417,0.243171284927434,-0.0140945270396575
-12.4242424242424,-0.508515817929842,0.242916356953876,-0.0147880362015125
-11.8181818181818,-0.491537822886469,0.24191425098111,-0.0152333540699169
-11.2121212121212,-0.462781764056597,0.241274997178743,-0.0155478986639272
-10.6060606060606,-0.448965007503383,0.239879239831197,-0.0152029883850887
-10.0,-0.438339508632038,0.23900014958258,-0.0141250916476356
-9.39393939393939,-0.411473341274159,0.238634200236013,-0.0150959751636774
-8.78787878787879,-0.368382578012957,0.238400800242034,-0.0181687500752824
-8.18181818181818,-0.309636214916806,0.23846289682226,-0.0224429489301844
-7.57575757575758,-0.259972659692307,0.238707615627659,-0.0261246957825316
-6.96969696969697,-0.211291891586963,0.238832568143304,-0.0299719199184221
-6.36363636363636,-0.160064974878214,0.238999606542609,-0.0341237525837732
-5.75757575757576,-0.113705278702707,0.239373321817165,-0.0374588387223656
-5.15151515151515,-0.0666740388829792,0.239485263189656,-0.0416454565623223
-4.54545454545454,-0.0247954504215887,0.239719537318234,-0.0450599040247489
-3.93939393939394,-0.00720137600420318,0.240035519278711,-0.0476360191376182
-3.33333333333333,0.0227441240175762,0.24010134353387,-0.0496570820725333
-2.72727272727273,0.0781378018655399,0.240376232409624,-0.0503659571881744
-2.12121212121212,0.11424920888425,0.240650640417911,-0.0501817130734515
-1.51515151515152,0.148889481571089,0.240676357745243,-0.0501637763760653
-0.909090909090912,0.175778391867642,0.240897148973416,-0.0500263833432495
-0.303030303030302,0.199534556385456,0.240942653694946,-0.0499031117951173
0.303030303030302,0.228644637246565,0.241081294890857,-0.0500722124571789
0.909090909090912,0.261157129545046,0.24117902933205,-0.0503819345516552
1.51515151515152,0.295146305466658,0.241264616928692,-0.0508869087652635
2.12121212121212,0.327739097341122,0.241324819144787,-0.0514718395750452
2.72727272727273,0.361314801522298,0.241419003303581,-0.0518655736610087
3.33333333333333,0.394511445644247,0.241577802057872,-0.0525164555833113
3.93939393939394,0.427781620434596,0.241558886459008,-0.0529936956788409
4.54545454545455,0.461047098590934,0.241667967082859,-0.0536992202954911
5.15151515151515,0.49439243563138,0.241781795724278,-0.0541609852955795
5.75757575757576,0.527593114783967,0.241740872424789,-0.0546915755394731
6.36363636363637,0.560588314081041,0.241902599615155,-0.0551581310125282
6.96969696969697,0.593767927310651,0.241922381851399,-0.0555236653540774
7.57575757575757,0.627906419743919,0.241904835042616,-0.056094773519729
8.18181818181818,0.659819162685898,0.241991949987437,-0.0561651128473923
8.78787878787879,0.693947472896796,0.24192787860052,-0.056477366988499
9.39393939393939,0.723592010129416,0.241847087197616,-0.0564087458210262
10.0,0.745037731680697,0.241733559918786,-0.0556483462937478
10.6060606060606,0.772112167087316,0.241285672316709,-0.0549870878920467
11.2121212121212,0.784603921105937,0.240715394855244,-0.0514272990714068
11.8181818181818,0.796716412671607,0.240136100543116,-0.0473238685616555
12.4242424242424,0.818437142936489,0.239064395805613,-0.043972167484175
13.030303030303,0.848697187253392,0.237748267685342,-0.0418854038481025
13.6363636363636,0.889429940363626,0.235925135409503,-0.0409560493412999
14.2424242424242,0.917505408487427,0.235198278974278,-0.0396263954981269
14.8484848484848,0.944651091794366,0.234573860211685,-0.0385299174728073
15.4545454545455,0.971503377747835,0.234242818073216,-0.0376988833951511
16.0606060606061,0.988671974031951,0.234845270270224,-0.0367669562130197
16.6666666666667,1.01522617780448,0.23515423774479,-0.0358874996651936
17.2727272727273,1.04714212720244,0.235217788219683,-0.0354562680856406
17.8787878787879,1.05258940950915,0.237630600212485,-0.0350432300832069
18.4848484848485,1.04641041167444,0.239487448725994,-0.0339682136057189
19.0909090909091,1.04548582652706,0.240537546223849,-0.0331868850458326
19.6969696969697,1.04208821549574,0.241971739173812,-0.0328341174067294
20.3030303030303,1.03211442789203,0.244106104988286,-0.0331280347874651
20.9090909090909,1.01747076293083,0.246539214218391,-0.0334104756372589
21.5151515151515,1.00707706524727,0.248308475718426,-0.0341517404488971
22.1212121212121,1.00293091076034,0.248966694019453,-0.0354193907780027
22.7272727272727,1.0030110207533,0.249724837165621,-0.0371478880642702
23.3333333333333,1.0042567714628,0.251750684193556,-0.0390520757583011
23.9393939393939,1.00565809075023,0.253719809636718,-0.0414540937173286
24.5454545454545,0.994603563617458,0.25723291665547,-0.0445843914542878
25.1515151515151,0.974810498153267,0.262759270315639,-0.0490113121558897
25.7575757575758,0.952576626122456,0.268971688780638,-0.0540144826897743
26.3636363636364,0.930111707488985,0.27532447204439,-0.0591043312449866
26.969696969697,0.907799071995632,0.281582773162869,-0.0642803762278471
27.5757575757576,0.885585478897676,0.287803188703051,-0.0694942776348311
28.1818181818182,0.856168087039935,0.29401710212389,-0.0747953653297736
28.7878787878788,0.822322946343933,0.300213656970561,-0.0803489806923896
29.3939393939394,0.788933313705118,0.306550697446481,-0.0861057886151857
30.0,0.764342643757368,0.313901889952292,-0.0887922594075948
33.0,0.68232640057584,0.351965371141101,-0.096391244402307
36.0,0.643619696305046,0.379834260845586,-0.104001629985344
39.0,0.596219120438176,0.410427306456802,-0.111843223959061
42.0,0.561364211908924,0.444572073786636,-0.116531623127793
45.0,0.529909908075674,0.479722279253603,-0.120945604420996
48.0,0.49689290536578,0.514840125184943,-0.125273698324989
51.0,0.462979126881824,0.549900754115845,-0.130130760270227
54.0,0.428225703753605,0.584441474717317,-0.134906445469772
57.0,0.39403202391022,0.620312536057208,-0.139846415213372
60.0,0.361134954811738,0.659233633620477,-0.144780094337736
63.0,0.323967591694384,0.686398210435481,-0.150390903136212
66.0,0.287645465775204,0.7164272512051,-0.155997460924539
69.0,0.252214839655964,0.750199145510662,-0.161607037074838
72.0,0.215922621493795,0.774036067993426,-0.167520259383532
75.0,0.178986669583809,0.794270560368256,-0.173529970733352
78.0,0.142017936804604,0.818869295313612,-0.179627958035389
81.0,0.106106549837209,0.840272257139826,-0.185596499467511
84.0,0.0722666489651497,0.848219785628372,-0.191039596245206
87.0,0.0370241940988868,0.86130054847963,-0.196626734832606
90.0,4.6580433111388e-05,0.87977836958846,-0.202219866390016
93.0,-0.0258305981917443,0.861302474154264,-0.203179269638133
96.0,-0.050491419563406,0.848220377533355,-0.204141436510551
99.0,-0.0741707023855342,0.840271528939931,-0.205502436816416
102.0,-0.0993087619375106,0.818866657275891,-0.204899051903966
105.0,-0.125191044373525,0.794267947342445,-0.20369108228185
108.0,-0.151050377575502,0.774033457752937,-0.202765502896305
111.0,-0.176442504791491,0.750196788134341,-0.201425055013987
114.0,-0.201198695199881,0.716429147302697,-0.199805459801515
117.0,-0.226578809248206,0.686404301524827,-0.198188958874656
120.0,-0.252550413477987,0.659244636582719,-0.196244843481152
123.0,-0.275632505682069,0.620319739905243,-0.195930319558272
126.0,-0.299621486952799,0.584443684607224,-0.195317431931624
129.0,-0.324002332263754,0.549898060377138,-0.193596611200551
132.0,-0.34859704698971,0.513532693864376,-0.19663117411892
135.0,-0.373094479815103,0.476563277197254,-0.199853549416028
138.0,-0.396522832095462,0.439649071459266,-0.203076404763569
141.0,-0.4233754818322,0.404459391688718,-0.212270136865847
144.0,-0.458257480061078,0.372815245859237,-0.235129914411366
147.0,-0.487044073506756,0.35052013887972,-0.258176681847062
150.0,-0.595525703190811,0.306719861751038,-0.284625803193262
153.0,-0.608159387583293,0.279636730419564,-0.312072447752129
156.0,-0.620793071975774,0.250824470718743,-0.33552565932254
159.0,-0.633426756368255,0.220190694133058,-0.358978870892951
162.0,-0.573865433189955,0.215565143234275,-0.331909040485704
165.0,-0.47819668769112,0.227684531962573,-0.279572455938461
168.0,-0.382527942192283,0.226331128039531,-0.200150825830322
171.0,-0.286718246943228,0.220780690064837,-0.13951928764781
174.0,-0.190626645613215,0.224262469468006,-0.0925085198031098
177.0,-0.0945350437850543,0.22637018659382,-0.0455002248779671
180.0,3.94881162172094e-05,0.227151529245548,-3.94881162172094e-05
