Alpha (deg),Cl,Cd,Cm
-180.0,0.0,0.0120832240887503,0.0
-177.0,0.077644027330124,0.0134423697090514,0.120000000361047
-174.0,0.155288053495872,0.0170680879314841,0.239999998922534
-171.0,0.232932507479151,0.0229262393502586,0.360000658682385
-168.0,0.310580052378285,0.0356984399854584,0.395061834678435
-165.0,0.388220135051579,0.0708847309852341,0.387655527308671
-162.0,0.465868401615214,0.113201847385862,0.38024843925443
-159.0,0.54350391019052,0.162078009171456,0.38290855281217
-156.0,0.621154243884858,0.217284289010582,0.405705334648466
-153.0,0.698797074242373,0.277816907136193,0.428497929632305
-150.0,0.776440270977758,0.343415565775625,0.449227483416642
-147.0,0.818759771507455,0.413791568950429,0.449323775681293
-144.0,0.790394434501658,0.486755284315597,0.447296026780662
-141.0,0.763266177911206,0.563152550549599,0.445287798862008
-138.0,0.735492106556637,0.640896963538097,0.444590381622497
-135.0,0.706640493743449,0.719592777232886,0.44603894100782
-132.0,0.675401072644372,0.798595523556838,0.447450273657303
-129.0,0.641382069845392,0.876579047585089,0.450480479019539
-126.0,0.605949532457003,0.953100579042933,0.454344721333922
-123.0,0.567917156856908,1.02777635936629,0.458801071900977
-120.0,0.525864306906561,1.09823785845767,0.463027455912574
-117.0,0.481137254549071,1.16478948507404,0.46674867476463
-114.0,0.43405270615523,1.22733135619976,0.470217326414286
-111.0,0.384416373230428,1.28473252826032,0.473685894502939
-108.0,0.332115339431661,1.33455608181005,0.474462734701922
-105.0,0.278401772226719,1.37867709189828,0.474631558563755
-102.0,0.223480482316269,1.41688553755935,0.474223035168945
-99.0,0.167487445818576,1.44637483879575,0.472121386200915
-96.0,0.111310484518334,1.46766838349175,0.467887666227475
-93.0,0.0553956018902028,1.48216745076249,0.462987666701635
-90.0,-2.16995158086683e-10,1.48978616359396,0.458087654638962
-87.0,-0.0553956015580707,1.48216745080814,0.446963040681259
-84.0,-0.111310484366345,1.46766838354239,0.435838420793713
-81.0,-0.167487446257247,1.44637483856467,0.42421515372182
-78.0,-0.223480482754939,1.41688553732836,0.410996230897919
-75.0,-0.278401772006658,1.37867709205769,0.396510170014844
-72.0,-0.332115339185659,1.33455608203944,0.381649820589329
-69.0,-0.384416373553921,1.28473252788617,0.366453491001334
-66.0,-0.434052705792252,1.22733135661946,0.34976973408655
-63.0,-0.481137254485244,1.16478948516355,0.333085975624306
-60.0,-0.52586430704216,1.09823785823043,0.316333911844833
-57.0,-0.567917156410925,1.02777636011345,0.299445240499769
-54.0,-0.605949532529145,0.953100578900133,0.282494474790487
-51.0,-0.64138207010861,0.876579046975944,0.265649839958689
-48.0,-0.675401072808757,0.798595523145899,0.248956313670151
-45.0,-0.706640493475851,0.719592777914464,0.232556809395289
-42.0,-0.700006437897143,0.64089696354348,0.216157296012734
-39.0,-0.699105370383268,0.563152550403497,0.187343892562784
-36.0,-0.704353255917311,0.48675528508991,0.141675813774143
-33.0,-0.717678500306362,0.413791568715327,0.0941318280257804
-30.0,-0.85382336888875,0.304695667562552,0.0616673518551415
-29.3939393939394,-0.893251233134839,0.279273795840984,0.0566637995323032
-28.7878787878788,-0.932861433748398,0.253941234781582,0.0516802772209425
-28.1818181818182,-0.972717220187661,0.228680204654348,0.04671956606989
-27.5757575757576,-0.987482963594903,0.214086139767289,0.0425576641716334
-26.969696969697,-0.991768474074665,0.204027189214057,0.0387290087139011
-26.3636363636364,-0.997856725776382,0.193673324621108,0.0348930093415005
-25.7575757575758,-1.00510543430496,0.183187539172048,0.0309255640057138
-25.1515151515151,-1.01263350783476,0.172701753722988,0.0269486417260741
-24.5454545454545,-1.01913393028141,0.162560449926438,0.0229717194464345
-23.9393939393939,-1.02566225049257,0.153291960593646,0.0194714211101514
-23.3333333333333,-1.03135315646634,0.145109829358746,0.0167337526731631
-22.7272727272727,-1.03704456657974,0.136927426966513,0.0139958300186323
-22.1212121212121,-1.04273636418898,0.128744774639724,0.01125769916439
-21.5151515151515,-1.04842846605788,0.120561891442732,0.00851939565358862
-20.9090909090909,-1.05412081119682,0.112378794549061,0.00578094737457223
-20.3030303030303,-1.05981335389591,0.104195499470153,0.00304237651632928
-19.6969696969697,-1.0621100617437,0.0970973934804777,0.00103375346424772
-19.0909090909091,-1.06101388287967,0.0910846144610096,-0.000257117246191742
-18.4848484848485,-1.05992171751736,0.0850718325225597,-0.00155047246965622
-17.8787878787879,-1.0578938622796,0.0792474952330402,-0.00274453155028668
-17.2727272727273,-1.05214391902083,0.0741746161923115,-0.00354491178144442
-16.6666666666667,-1.04645210657262,0.0690975595900943,-0.00434152384256603
-16.0606060606061,-1.04081863777863,0.064015883790057,-0.00513485944534954
-15.4545454545455,-1.04083793839508,0.0590698803599993,-0.00530134637582316
-14.8484848484848,-1.04301773458709,0.0540806067985451,-0.0053977682316036
-14.2424242424242,-1.04230392073772,0.0490041630280716,-0.00549367886438397
-13.6363636363636,-1.03903400874218,0.0442435185583641,-0.00570304682594291
-13.030303030303,-1.03626689348318,0.0399509064600993,-0.00607671586942945
-12.4242424242424,-1.03380140851872,0.035690517724404,-0.00651014591836784
-11.8181818181818,-1.02354757127371,0.0315718083424084,-0.00848878783375785
-11.2121212121212,-0.994343666657777,0.0277836841546618,-0.0136430824010611
-10.6060606060606,-0.967168407217248,0.0239955599669151,-0.0185485542954257
-10.0,-0.93634827564529,0.0202074357791684,-0.0234540261897904
-9.39393939393939,-0.857663326543026,0.0178325177208501,-0.0329319988493004
-8.78787878787879,-0.78171141721213,0.0154601878543782,-0.0421035744240836
-8.18181818181818,-0.70504918177519,0.0129320257226431,-0.0515116717091803
-7.57575757575758,-0.624897110524211,0.011571599346861,-0.0582385548170254
-6.96969696969697,-0.542990358079095,0.0107757157925836,-0.0631802197525911
-6.36363636363636,-0.461055553462062,0.0099776448967556,-0.06799685321085
-5.75757575757576,-0.379775582306752,0.0094190499833375,-0.0721175232306053
-5.15151515151515,-0.299586671544349,0.00921302769060023,-0.0751948879975607
-4.54545454545454,-0.219396445177754,0.00899442251168446,-0.0782708035703727
-3.93939393939394,-0.139328484412293,0.00877911685582114,-0.0812799493196793
-3.33333333333333,-0.0603774704354972,0.00868654707738971,-0.0837156437508959
-2.72727272727273,0.0185739833806668,0.0085935824176669,-0.0862058004030913
-2.12121212121212,0.0975201851887226,0.00850020935976278,-0.0888926178841219
-1.51515151515152,0.175849045591588,0.00846457277183013,-0.0912554411201614
-0.909090909090912,0.254169120968804,0.00845010168139152,-0.0935169964753433
-0.303030303030302,0.332104710072157,0.00847344453430621,-0.0956332584983215
0.303030303030302,0.409382922583042,0.00851807290243812,-0.0976725805521126
0.909090909090912,0.486156284568663,0.0085839828313568,-0.0996365834733366
1.51515151515152,0.562746950277229,0.00868487145040572,-0.101490317369619
2.12121212121212,0.63923492643495,0.00880126669024626,-0.103298470473145
2.72727272727273,0.71512226834491,0.00895498073970579,-0.105005293694525
3.33333333333333,0.790554276342659,0.00913387827586553,-0.106635160574184
3.93939393939394,0.865619094670625,0.00933335550834455,-0.108201971876599
4.54545454545455,0.939792330995132,0.00958534404806456,-0.109631843780442
5.15151515151515,1.0135792917063,0.00985856657860457,-0.111005496003616
5.75757575757576,1.08649532115277,0.0101773806147111,-0.112257499896739
6.36363636363637,1.15837466725619,0.010551660718049,-0.113380931541257
6.96969696969697,1.22956817085542,0.0109633233373799,-0.114418464021509
7.57575757575757,1.29931797870087,0.0114216892949277,-0.115260044558449
8.18181818181818,1.36795006524456,0.0119421934107533,-0.115976307971752
8.78787878787879,1.43417289786058,0.0126122683725093,-0.116423731947135
9.39393939393939,1.4986164577953,0.0133298582923211,-0.116651056818045
10.0,1.56210266018582,0.0140729262371461,-0.116759548158251
10.6060606060606,1.62138290300123,0.0149559476443822,-0.116396406464436
11.2121212121212,1.67873111176381,0.0159063692028145,-0.115836331788703
11.8181818181818,1.73249026683011,0.0169813472974015,-0.114911317907698
12.4242424242424,1.78045837741538,0.0183006340221486,-0.113506570942693
13.030303030303,1.82542300116102,0.019778593644549,-0.111871636520864
13.6363636363636,1.8604823352804,0.0217997489332796,-0.109772855701554
14.2424242424242,1.88653943748507,0.0243385849039595,-0.107412378697715
14.8484848484848,1.89778878247523,0.0277378393023045,-0.104670565895267
15.4545454545455,1.89717913699089,0.0324242861715975,-0.102322480472904
16.0606060606061,1.88742900894466,0.0379356671429028,-0.100209034355541
16.6666666666667,1.84094123317604,0.0470128806304952,-0.0990108576220681
17.2727272727273,1.79445345740742,0.0560900941180876,-0.0977711586773182
17.8787878787879,1.7479656816388,0.06516730760568,-0.0964779432446707
18.4848484848485,1.69173152125408,0.0766077851757422,-0.0974624932181577
19.0909090909091,1.63306076523215,0.0886390786411052,-0.0990307156953573
19.6969696969697,1.57439000921022,0.100670372106468,-0.100608408389275
20.3030303030303,1.52739700522227,0.113223842375174,-0.103463137213908
20.9090909090909,1.49208175150694,0.12629948936846,-0.107555775936084
21.5151515151515,1.4567664977916,0.139375136361747,-0.111616077553687
22.1212121212121,1.42145124407627,0.152564503044697,-0.115649335249522
22.7272727272727,1.38613599036093,0.166116907607035,-0.119659780567333
23.3333333333333,1.3508207366456,0.179527535723958,-0.123650844904774
23.9393939393939,1.31550548293026,0.19283454166875,-0.1276253498498
24.5454545454545,1.28943792478963,0.206664149207467,-0.13178333280261
25.1515151515151,1.26527393971715,0.220482933828688,-0.135957658549476
25.7575757575758,1.24411610786846,0.234182260671234,-0.140126145359404
26.3636363636364,1.22338429376931,0.247681477110297,-0.144288043617846
26.969696969697,1.20203015529141,0.261702090228317,-0.148442483390023
27.5757575757576,1.18165464333398,0.275780146181552,-0.152588456112662
28.1818181818182,1.16274015020476,0.290464498126394,-0.156784681447705
28.7878787878788,1.14739937058249,0.30666414262571,-0.16111700675895
29.3939393939394,1.13162608207894,0.322479649033214,-0.16544932164372
30.0,1.11580124140275,0.337828541765148,-0.169781619314912
33.0,1.05566289172429,0.413791568715328,-0.190501325773988
36.0,1.03311254889891,0.48675528508991,-0.209963139113171
39.0,1.01937616121264,0.563152550403498,-0.229201207605069
42.0,1.01320300936386,0.640896963543481,-0.246539566233348
45.0,1.00948641925121,0.719592777914464,-0.262461828486006
48.0,0.964858675441081,0.798595523145899,-0.278384061761114
51.0,0.916260100155158,0.876579046975944,-0.293618573679955
54.0,0.86564218932735,0.953100578900133,-0.30849964551487
57.0,0.811310223444179,1.02777636011345,-0.323114579988624
60.0,0.751234724345942,1.09823785823044,-0.337516718300206
63.0,0.68733893497892,1.16478948516355,-0.351450707437245
66.0,0.620075293988931,1.22733135661947,-0.365150621350119
69.0,0.549166247934172,1.28473252788617,-0.378850534510624
72.0,0.474450484550941,1.33455608203944,-0.391456422133723
75.0,0.397716817152368,1.37867709205769,-0.403815190651079
78.0,0.319257832507056,1.41688553732836,-0.415931250185938
81.0,0.239267780367496,1.44637483856467,-0.427310829654988
84.0,0.159014977666207,1.46766838354239,-0.437762989028138
87.0,0.0791365736543864,1.48216745080814,-0.44792532481916
90.0,3.09992947415638e-10,1.48978616359396,-0.458087654642731
93.0,-0.0553956018902025,1.48216745076249,-0.462987666701635
96.0,-0.111310484518335,1.46766838349175,-0.467887666227475
99.0,-0.167487445818577,1.44637483879575,-0.472121386200915
102.0,-0.223480482316269,1.41688553755935,-0.474223035168945
105.0,-0.278401772226719,1.37867709189828,-0.474631558563755
108.0,-0.332115339431661,1.33455608181005,-0.474462734701922
111.0,-0.384416373230429,1.28473252826031,-0.473685894502939
114.0,-0.43405270615523,1.22733135619976,-0.470217326414286
117.0,-0.481137254549071,1.16478948507404,-0.46674867476463
120.0,-0.525864306906562,1.09823785845767,-0.463027455912574
123.0,-0.567917156856908,1.02777635936629,-0.458801071900977
126.0,-0.605949532457003,0.953100579042933,-0.454344721333922
129.0,-0.641382069845392,0.876579047585088,-0.450480479019539
132.0,-0.675401072644373,0.798595523556837,-0.447450273657303
135.0,-0.706640493743449,0.719592777232886,-0.44603894100782
138.0,-0.735492106556637,0.640896963538096,-0.444590381622497
141.0,-0.763266177911206,0.563152550549598,-0.445287798862008
144.0,-0.790394434501658,0.486755284315597,-0.447296026780662
147.0,-0.818759771507456,0.413791568950429,-0.449323775681293
150.0,-0.776440270977757,0.343415565775624,-0.449227483416642
153.0,-0.698796243792521,0.277816242603301,-0.428497685858483
156.0,-0.621152216607286,0.2172827751114,-0.405704739501174
159.0,-0.54350818942205,0.162080955269347,-0.382909809174884
162.0,-0.465864162236815,0.113199465364677,-0.400248843792988
165.0,-0.388220135051579,0.0708847309852342,-0.437655527475197
168.0,-0.310576107866343,0.0356968013694605,-0.475062211157406
171.0,-0.232932080681107,0.0229262043354612,-0.449999998824567
174.0,-0.155288053495872,0.0170680879314841,-0.299999998653168
177.0,-0.077644027330124,0.0134423697090514,-0.150000000451309
180.0,0.0,0.0120832240887503,0.0
