Alpha (deg),Cl,Cd,Cm
-180.0,1.50621634755349e-07,0.0914605754856553,-1.50621634755349e-07
-177.0,0.131443193279777,0.0913461599405691,0.0896546882031156
-174.0,0.264394663797461,0.0910328209471266,0.180435803488511
-171.0,0.397346132577216,0.0905000513291448,0.2712175042384
-168.0,0.529977209322709,0.0990056706627709,0.294980088526417
-165.0,0.662448130382419,0.110672372933218,0.285385822878138
-162.0,0.79491901819659,0.119825719864354,0.27595066167532
-159.0,0.891506354790518,0.14366377138133,0.267391282737429
-156.0,0.916346139171871,0.19336108800923,0.260538820219116
-153.0,0.941185954034138,0.243043276562342,0.254012133164314
-150.0,0.966025767408062,0.292711088965373,0.247717681080835
-147.0,0.897546625761051,0.353672668126279,0.230832205769741
-144.0,0.842419057446785,0.412624962327664,0.214047610776704
-141.0,0.786220419428317,0.472634904304247,0.197298442531346
-138.0,0.737938032934933,0.535951510860399,0.189563942566795
-135.0,0.693507334425926,0.600932954161765,0.186310804974187
-132.0,0.648890799739204,0.665958749724785,0.183057680173238
-129.0,0.604260038135998,0.72995206881573,0.181606406070007
-126.0,0.559671352497632,0.791749893162416,0.183835971115997
-123.0,0.515150481401099,0.853781158017182,0.186049028644694
-120.0,0.470786369592946,0.916356878451266,0.188259271043731
-117.0,0.423554174860473,0.967613352348193,0.191970919156663
-114.0,0.376424500701527,1.01937881519578,0.195681053645914
-111.0,0.329402564481872,1.07182234521074,0.199396065501688
-108.0,0.281559940115645,1.1128485501533,0.202301209470736
-105.0,0.23328099499102,1.14840840906606,0.204796678011816
-102.0,0.184998074600363,1.18477130476986,0.207302568479161
-99.0,0.13758507593944,1.21460129368954,0.208781154152476
-96.0,0.0919097236247555,1.23002485726356,0.208180350594851
-93.0,0.0460637374797011,1.24641375223721,0.207590516872641
-90.0,-3.12369493646806e-06,1.2638464653602,0.207001516291021
-87.0,-0.0460676743217211,1.24641223259869,0.200194000358826
-84.0,-0.0919104436802311,1.23002438810425,0.193389103077333
-81.0,-0.137582630532291,1.2146018702611,0.186594241360068
-78.0,-0.184994450301286,1.18477340544117,0.17812679574159
-75.0,-0.23327736857484,1.14841050115088,0.168834937468065
-72.0,-0.28155631143806,1.11285064128518,0.159555063225486
-69.0,-0.329388709310933,1.07182423624909,0.150043790962889
-66.0,-0.376379804994509,1.01937728350084,0.140070408397174
-63.0,-0.423478623313445,0.967608417970327,0.130107576963322
-60.0,-0.470679739581795,0.916347976592394,0.12015544129177
-57.0,-0.51507468094704,0.853775276052443,0.111078144413377
-54.0,-0.559626565476933,0.791748078429363,0.102009896495842
-51.0,-0.604246276741629,0.729954290192907,0.0929517848089821
-48.0,-0.648887398856444,0.665962474933196,0.085256282588491
-45.0,-0.693503942016574,0.600936648183275,0.0782408141487177
-42.0,-0.775434633326548,0.53595515696645,0.0712306440441075
-39.0,-0.861216402965393,0.472638238203682,0.0648690844867486
-36.0,-0.954915096471564,0.412628191695821,0.0598667514641207
-33.0,-1.04754265149839,0.353675549414148,0.0559551116472546
-30.0,-1.13844962802421,0.294489368325896,0.0521494576791101
-29.3939393939394,-1.14803123695829,0.286903014303505,0.0486091113052258
-28.7878787878788,-1.15768770480193,0.279096148512409,0.0450687649313415
-28.1818181818182,-1.16741301289465,0.27119257627115,0.0415284185574572
-27.5757575757576,-1.17923090912287,0.262935038069054,0.037986785167351
-26.969696969697,-1.19199133065291,0.254506299775024,0.0344446001989737
-26.3636363636364,-1.20483114679897,0.2460529924225,0.0309024152305963
-25.7575757575758,-1.21775570823422,0.237576928909685,0.027360230262219
-25.1515151515151,-1.23077085748108,0.229079748056568,0.0238180452938417
-24.5454545454545,-1.23820116857389,0.22056293500929,0.0202758603254644
-23.9393939393939,-1.24387313498139,0.212022591279969,0.0167334757449705
-23.3333333333333,-1.24996247185818,0.203413464858462,0.0131892946545241
-22.7272727272727,-1.25621414334118,0.194780209008122,0.00964511356407773
-22.1212121212121,-1.26264325021166,0.186123853903668,0.00610093247363134
-21.5151515151515,-1.26740042557699,0.177445371900032,0.0024902440811914
-20.9090909090909,-1.27112245849979,0.168745681532734,-0.000983081198600601
-20.3030303030303,-1.27484449142259,0.160025651190658,-0.00452843965146573
-19.6969696969697,-1.27089224346401,0.152693847566903,-0.00900546098446157
-19.0909090909091,-1.24866009811895,0.149791929325349,-0.0102813537413008
-18.4848484848485,-1.24761914493531,0.144549594989016,-0.0116240741073964
-17.8787878787879,-1.22892588128329,0.1413027992205,-0.0128163716885527
-17.2727272727273,-1.20180624276777,0.137075688326861,-0.0138600869938162
-16.6666666666667,-1.17051783804169,0.132908269868067,-0.0148276814949494
-16.0606060606061,-1.13148877581373,0.129955601659244,-0.0157196262804473
-15.4545454545455,-1.09900554440342,0.126067637830976,-0.0164651013922323
-14.8484848484848,-1.06435920620638,0.122571705651798,-0.017193678041533
-14.2424242424242,-1.02518358844328,0.119711137423937,-0.0178008170043158
-13.6363636363636,-0.987376632443908,0.116712432083893,-0.0184836481631973
-13.030303030303,-0.952794049549451,0.113421842257556,-0.0187941047542652
-12.4242424242424,-0.90997368476977,0.111136873308872,-0.0193959482129139
-11.8181818181818,-0.87190781298323,0.108288447633951,-0.0197429792410047
-11.2121212121212,-0.829142926169385,0.10597735545851,-0.0199411329686171
-10.6060606060606,-0.793682114804973,0.102998995747793,-0.019483736579989
-10.0,-0.759796051751677,0.100476643785966,-0.0182976938837344
-9.39393939393939,-0.704417399066202,0.0988549085898205,-0.021292492713984
-8.78787878787879,-0.640821468432639,0.0973509976956331,-0.0263767372850673
-8.18181818181818,-0.568909067493778,0.0961097752931876,-0.032655291941813
-7.57575757575758,-0.495444796144071,0.0953758448148246,-0.0388923202738971
-6.96969696969697,-0.419816873784489,0.0946838539796035,-0.0455284536518628
-6.36363636363636,-0.342559770378104,0.0940300661958967,-0.0524673919147679
-5.75757575757576,-0.267150337633251,0.0936848341873212,-0.058451957564531
-5.15151515151515,-0.190082522907708,0.0932921936449757,-0.0650693195310847
-4.54545454545454,-0.114873992243224,0.0930091043598138,-0.0709190832864663
-3.93939393939394,-0.0424177699757614,0.0928276005505463,-0.075934198727529
-3.33333333333333,0.0290919675186135,0.0926751597846387,-0.0803860295605948
-2.72727272727273,0.100225290438685,0.0927098556764291,-0.0837076815608805
-2.12121212121212,0.171204938104309,0.0927443856311583,-0.0868311113127981
-1.51515151515152,0.241902266009154,0.0926561349049419,-0.0898314323714774
-0.909090909090912,0.31066126825116,0.0927753154143788,-0.0926089740974561
-0.303030303030302,0.378197619419767,0.0927810157142119,-0.0951738151393067
0.303030303030302,0.448076770413332,0.0928898675414151,-0.0978300324912104
0.909090909090912,0.519485668167573,0.0929817264820413,-0.100464045382068
1.51515151515152,0.59116415235071,0.093095796251142,-0.103029116994582
2.12121212121212,0.661873184233347,0.0931992101976069,-0.105568959501284
2.72727272727273,0.732635113223778,0.0933581562943394,-0.107750513365527
3.33333333333333,0.80286042366404,0.0935924577278822,-0.110034890564001
3.93939393939394,0.872855548935544,0.0936816074143321,-0.112074007931138
4.54545454545455,0.942246328456508,0.093916203445531,-0.114125010608182
5.15151515151515,1.01142700975748,0.0941676981713925,-0.115890875053207
5.75757575757576,1.07996911490881,0.0943081263599713,-0.117557949568312
6.36363636363637,1.147843188381,0.0946570728954338,-0.11903636632216
6.96969696969697,1.21544633266385,0.0948966252367257,-0.120338099858165
7.57575757575757,1.28238151873984,0.0951654875531796,-0.121561121829252
8.18181818181818,1.3475650736539,0.0955593784805892,-0.122247284836016
8.78787878787879,1.41282629006248,0.0958829949149069,-0.122943481711283
9.39393939393939,1.4742657322043,0.0962943165862707,-0.12312361520408
10.0,1.53052212786064,0.0967318536825222,-0.122598896664092
10.6060606060606,1.58632848116655,0.097185449043871,-0.121855262652879
11.2121212121212,1.63226495456002,0.0977597991159091,-0.118464612155686
11.8181818181818,1.67430551995409,0.0987532509791791,-0.114399921710505
12.4242424242424,1.71757732272376,0.0998911530467888,-0.110938887630088
13.030303030303,1.76334836041935,0.101109066753844,-0.108560304703207
13.6363636363636,1.80811350118212,0.10259783083631,-0.1065493699178
14.2424242424242,1.84714927157919,0.105016534024685,-0.104399502418399
14.8484848484848,1.88735631489246,0.107466934196434,-0.102807805690918
15.4545454545455,1.92436201837066,0.11049985943142,-0.101335752513274
16.0606060606061,1.95434251628577,0.114578824883624,-0.0997479502683762
16.6666666666667,1.98020640566905,0.1195836578869,-0.0983880675097178
17.2727272727273,2.00476487415844,0.124409373750449,-0.0974446538214824
17.8787878787879,1.98772296852294,0.131223207967074,-0.0965181228942134
18.4848484848485,1.96475798725312,0.138284651973842,-0.0958248072292535
19.0909090909091,1.9470379314373,0.144883126747358,-0.0956142487736356
19.6969696969697,1.92685949298996,0.151834487373412,-0.0958037439928874
20.3030303030303,1.90474040994333,0.159225495946282,-0.0969058344114819
20.9090909090909,1.88257569326201,0.166720814568809,-0.0983011084682451
21.5151515151515,1.86463577900096,0.173721850652076,-0.100128965848222
22.1212121212121,1.85290641505564,0.179911604729407,-0.102452144465264
22.7272727272727,1.84537829108157,0.185803406655726,-0.105205715411708
23.3333333333333,1.83900890584563,0.192079444090604,-0.108118975819639
23.9393939393939,1.83279416803674,0.198299095799905,-0.111488668994729
24.5454545454545,1.82002991314241,0.206113888350267,-0.115950209083335
25.1515151515151,1.79733298672068,0.215936706889311,-0.121626351452985
25.7575757575758,1.76652788802628,0.226441527914154,-0.127784936414606
26.3636363636364,1.7354931107997,0.237085882611318,-0.133975004060871
26.969696969697,1.70460971501607,0.2476363146098,-0.140195859991278
27.5757575757576,1.67382477517914,0.258149085357636,-0.146405549052713
28.1818181818182,1.64060982367381,0.268660083825806,-0.152621241212972
28.7878787878788,1.60592182486379,0.279164772963977,-0.158945670966571
29.3939393939394,1.57124093374583,0.289809115889507,-0.165392712935518
30.0,1.54321798521053,0.301461605859592,-0.169267665265405
33.0,1.42118013838373,0.360667349798059,-0.18375032383283
36.0,1.30690929064058,0.419017799902083,-0.198279845945147
39.0,1.19106591041314,0.477849850638264,-0.212821421777627
42.0,1.08745298500445,0.540145912602441,-0.223299879503322
45.0,0.988129498237289,0.603582080606634,-0.232464500207845
48.0,0.926006703675121,0.667044469494892,-0.241557060402082
51.0,0.863229376390951,0.729954290192907,-0.250794710230431
54.0,0.799545144946104,0.791748078429363,-0.259813682386523
57.0,0.735957789530523,0.853775276052443,-0.26885986709181
60.0,0.672594827438027,0.916347976592394,-0.277905111190423
63.0,0.605115976930807,0.967608417970327,-0.287520633457983
66.0,0.537783421774936,1.01937728350084,-0.297136057596896
69.0,0.470604818512644,1.07182423624909,-0.306752523294601
72.0,0.402259890218884,1.11285064128518,-0.31647466824463
75.0,0.333294829789922,1.14841050115088,-0.32624106942828
78.0,0.264324091722298,1.18477340544117,-0.336023718212135
81.0,0.196591337896491,1.2146018702611,-0.345472558211603
84.0,0.131330835022174,1.23002438810425,-0.35420642053229
87.0,0.0658264438239559,1.24641223259869,-0.362966354522209
90.0,5.65249877489452e-06,1.2638464653602,-0.371728356548087
93.0,-0.0460632100749068,1.24641375223721,-0.374677054976548
96.0,-0.0919090732753658,1.23002485726356,-0.377626449669891
99.0,-0.137584300604653,1.21460129368954,-0.380646018428746
102.0,-0.184997269037667,1.18477130476986,-0.381254433099022
105.0,-0.233280186810205,1.14840840906606,-0.380724039472866
108.0,-0.28155912924892,1.1128485501533,-0.380243242987549
111.0,-0.329390420197978,1.07182234521074,-0.379272132763165
114.0,-0.37637841297604,1.01937881519578,-0.377414103872541
117.0,-0.423474128382323,0.967613352348193,-0.375557142754993
120.0,-0.470672270882442,0.916356878451266,-0.373645624370741
123.0,-0.515070427972734,0.853781158017182,-0.373512118141157
126.0,-0.559625247705906,0.791749893162416,-0.37332893346419
129.0,-0.6042478958,0.729952068815729,-0.372962389925317
132.0,-0.648889997468847,0.665958749724784,-0.377543140818322
135.0,-0.693506541937565,0.600932954161765,-0.384234728161641
138.0,-0.737937232107892,0.535951510860398,-0.39092648114792
141.0,-0.78621963342609,0.472634904304246,-0.40392585918817
144.0,-0.842418339638342,0.412624962327664,-0.429892365339112
147.0,-0.89754589161681,0.353672668126279,-0.45598402341637
150.0,-0.966025466164793,0.292711088965373,-0.482823260693924
153.0,-0.941185656164417,0.243043278507943,-0.49885934645653
156.0,-0.91634584616404,0.193361092453512,-0.5130913939398
159.0,-0.891506036163664,0.143663762704064,-0.52732344142307
162.0,-0.794898698840969,0.119826093385226,-0.503585897497092
165.0,-0.662397738051485,0.110672372933218,-0.460858355601258
168.0,-0.529896777262001,0.0990057353903814,-0.408784344712143
171.0,-0.397255701312338,0.0905000546169274,-0.339001490544951
174.0,-0.264334388500761,0.0910328209471266,-0.225532306526096
177.0,-0.131413075685041,0.0913461599405691,-0.112063976125897
180.0,1.50621634755349e-07,0.0914605754856553,-1.50621634755349e-07
