Alpha (deg),Cl,Cd,Cm
-180.0,0.0,0.0280270148732245,0.0
-177.0,0.0882004574258801,0.0291807784526497,0.120000000361047
-174.0,0.176400913529076,0.0322580480650534,0.239999998922534
-171.0,0.26460185561559,0.0372282619360262,0.360000658682385
-168.0,0.352806308856813,0.0465448979679129,0.402940959894088
-165.0,0.441002285312955,0.0728631156823396,0.407351839546626
-162.0,0.529207558335703,0.10965771349041,0.411763184141423
-159.0,0.61739833880255,0.152672547526704,0.422062897453461
-156.0,0.70560596000171,0.201172180261025,0.444144011696265
-153.0,0.793805057715385,0.254218881147447,0.466219687595421
-150.0,0.88200457161942,0.311575904149007,0.485409275165434
-147.0,0.922742643436693,0.372990179269018,0.475752594055329
-144.0,0.868503181202292,0.43656335769512,0.463020538950961
-141.0,0.82042169289911,0.50303123233871,0.45055349388773
-138.0,0.774285739080395,0.57059060239378,0.441932068535347
-135.0,0.7294531606631,0.638905417334317,0.435667048507625
-132.0,0.685721513569081,0.707413713105079,0.429402028409762
-129.0,0.64214228914441,0.774965068041744,0.426500462415173
-126.0,0.597804201365229,0.841186517285126,0.425327482673247
-123.0,0.552543670393773,0.90574828187515,0.425411317602447
-120.0,0.505557764683655,0.966577376904203,0.425710714842172
-117.0,0.457348677714589,1.02395434622952,0.426581384712035
-114.0,0.408070686153272,1.07779707789848,0.427742181999839
-111.0,0.35764940963726,1.12711935434911,0.428901054297469
-108.0,0.306179071718929,1.16979476262694,0.428527262307481
-105.0,0.254309475857368,1.2074696813077,0.427807629645285
-102.0,0.202204460656555,1.2399628758329,0.426701401363197
-99.0,0.150262368156504,1.26482476503123,0.424282104530673
-96.0,0.0991091936513499,1.28251744193011,0.420209120647359
-93.0,0.048948509504199,1.29426711074731,0.415619079505733
-90.0,-1.91740669531967e-10,1.29999999997754,0.411028475855345
-87.0,-0.0489485092107213,1.29426711078168,0.401433039308733
-84.0,-0.0991091935137607,1.28251744197187,0.391836487766535
-81.0,-0.150262368563438,1.26482476483646,0.381845310958647
-78.0,-0.202204461063489,1.23996287563813,0.370588817531941
-75.0,-0.254309475647801,1.20746968144344,0.358324550578768
-72.0,-0.306179071477608,1.16979476282333,0.345790274533555
-69.0,-0.357649409965867,1.12711935402766,0.333042917575408
-66.0,-0.408070685784552,1.07779707825916,0.31935221262098
-63.0,-0.457348677646941,1.02395434630663,0.305661507531306
-60.0,-0.505557764835155,0.966577376708067,0.292017472640858
-57.0,-0.552543669895457,0.905748282520281,0.278387636407757
-54.0,-0.597804201451386,0.841186517161637,0.264805846440656
-51.0,-0.642142289486858,0.774965067514285,0.251308403618928
-48.0,-0.685721513792785,0.707413712748828,0.237919455330745
-45.0,-0.729453160281735,0.638905417925537,0.224736992794102
-42.0,-0.793112921374,0.570590602398456,0.211556315630584
-39.0,-0.854375512446404,0.503031232211663,0.183235187979541
-36.0,-0.91386041830452,0.436563358369366,0.134361247104513
-33.0,-0.975691949459422,0.372990179064038,0.0827491384902947
-30.0,-1.09421740782624,0.28129731287528,0.0533445520754121
-29.3939393939394,-1.12222717644019,0.260142062246842,0.0496296972401428
-28.7878787878788,-1.14994989566943,0.239274222631034,0.0459151506111406
-28.1818181818182,-1.17735781100362,0.218597307812834,0.0422011346169205
-27.5757575757576,-1.18549264504861,0.206039123014107,0.0388084129573054
-26.969696969697,-1.18529594952549,0.196875334460911,0.0355529675846618
-26.3636363636364,-1.1849028864857,0.187891308723118,0.0322972701148946
-25.7575757575758,-1.18431360148804,0.178920428679939,0.0290413129794864
-25.1515151515151,-1.18352824008933,0.169956439662711,0.025785095796262
-24.5454545454545,-1.18137674991982,0.161000153278375,0.0225286309230337
-23.9393939393939,-1.17853817486284,0.152207724552865,0.0193652373741412
-23.3333333333333,-1.17352504731872,0.144826297530086,0.0170386436796826
-22.7272727272727,-1.16812896773839,0.137469776189941,0.01470714636514
-22.1212121212121,-1.16218672025496,0.130154771210324,0.012370887252393
-21.5151515151515,-1.15542697888957,0.122916887029725,0.010030726037652
-20.9090909090909,-1.15207857477269,0.11553259352705,0.0076915532058206
-20.3030303030303,-1.14891639603902,0.107935807229395,0.0053737033895199
-19.6969696969697,-1.14509034245544,0.101052027960306,0.00355154454816265
-19.0909090909091,-1.14056779186843,0.0948265002196696,0.00225976129942883
-18.4848484848485,-1.13582186870691,0.0886041865533092,0.00100073892602471
-17.8787878787879,-1.13056842119575,0.0825454266683992,-0.000137921935216124
-17.2727272727273,-1.12388776149691,0.0771342767867654,-0.000773126782049216
-16.6666666666667,-1.11716895904672,0.0717245259763968,-0.00141098875864979
-16.0606060606061,-1.11041882421212,0.0663159730066327,-0.00205103508156599
-15.4545454545455,-1.10505133011061,0.0614095306395199,-0.00206989687576284
-14.8484848484848,-1.09983209523536,0.0565588166295672,-0.0020214824902158
-14.2424242424242,-1.09460636522062,0.0517081067762575,-0.00197472905881414
-13.6363636363636,-1.08819771686738,0.0472203110948908,-0.00232070544529895
-13.030303030303,-1.0809850349775,0.0430211454595599,-0.00298093057146144
-12.4242424242424,-1.07375037469006,0.0388032074967769,-0.0033769441628948
-11.8181818181818,-1.05484778627524,0.0349555795031002,-0.0049722232512939
-11.2121212121212,-1.00796128748483,0.0319929736947546,-0.00943896759993664
-10.6060606060606,-0.960903948870094,0.0290157084532912,-0.0139067075919449
-10.0,-0.913654251425401,0.0260234836363991,-0.018611073683842
-9.39393939393939,-0.845557618617893,0.0241463220639477,-0.0249760415357774
-8.78787878787879,-0.777439763753598,0.0222674317354166,-0.0312658350110429
-8.18181818181818,-0.709273085202984,0.02038646712382,-0.0374882280500636
-7.57575757575758,-0.638319535384522,0.0189487362683793,-0.043001404971331
-6.96969696969697,-0.565120341820892,0.0177015946735132,-0.0482463929370247
-6.36363636363636,-0.491919266622761,0.016454401061839,-0.0535193078514259
-5.75757575757576,-0.414548191006581,0.0154383626388873,-0.0589429794229295
-5.15151515151515,-0.330919742218857,0.0147691654567917,-0.0645482804378527
-4.54545454545454,-0.247283514136335,0.0141000228608517,-0.0701500073483993
-3.93939393939394,-0.163320028044059,0.0134690521905854,-0.0756949215578013
-3.33333333333333,-0.0764771010064032,0.0131810336128729,-0.080768001156955
-2.72727272727273,0.0103983351483146,0.0128930794950076,-0.0858193588765963
-2.12121212121212,0.0973010472053565,0.0126052007239395,-0.0909579988509596
-1.51515151515152,0.183411286693414,0.0124523204660779,-0.0955663295844952
-0.909090909090912,0.269751378515398,0.0123445666895677,-0.0998457169339172
-0.303030303030302,0.355014885528789,0.0123013478337486,-0.103733374490716
0.303030303030302,0.439594611429537,0.0122912850264947,-0.107422638131654
0.909090909090912,0.52351266849209,0.0123143802765799,-0.110906312336157
1.51515151515152,0.60641432824259,0.0123819653469077,-0.114098413636526
2.12121212121212,0.688901951600744,0.0124668934542601,-0.117179205576905
2.72727272727273,0.770479140105949,0.0125897624709034,-0.120016188899398
3.33333333333333,0.851431761233168,0.0127393120795598,-0.122707202026724
3.93939393939394,0.931873637897082,0.0129106918383909,-0.125278612699926
4.54545454545455,1.01122164598558,0.013126641808909,-0.127624097884211
5.15151515151515,1.09012570845069,0.0133597299944761,-0.129882690338639
5.75757575757576,1.16806780730192,0.0136291384636729,-0.131955630555616
6.36363636363637,1.24506464149209,0.0139400737084328,-0.133863097793099
6.96969696969697,1.32143420962243,0.0142789192647244,-0.135660267045785
7.57575757575757,1.39580283358187,0.014696606254424,-0.137156409607002
8.18181818181818,1.46931188247943,0.0151467414777845,-0.138523110246602
8.78787878787879,1.54105929288984,0.0156626061492721,-0.139624640486715
9.39393939393939,1.61040722254582,0.0162690785382534,-0.140399436054848
10.0,1.67850063996783,0.0169248485250527,-0.140998304831594
10.6060606060606,1.74224343983473,0.017785489476652,-0.141054635161043
11.2121212121212,1.80443134911134,0.0187666437505342,-0.14091260817127
11.8181818181818,1.86004899573162,0.0199724211608886,-0.140401410569724
12.4242424242424,1.9073706742577,0.0216310673850165,-0.139500937976812
13.030303030303,1.95040765519683,0.0235420484113363,-0.138418088672853
13.6363636363636,1.97713397665159,0.0266345359159805,-0.137067993124878
14.2424242424242,1.9969403620349,0.030237668094461,-0.135660970225304
14.8484848484848,2.00841106328256,0.0345580603179453,-0.134127566993962
15.4545454545455,2.01225889141592,0.0400329401064125,-0.132547477222623
16.0606060606061,2.01244943559758,0.0460201879178771,-0.130943225666573
16.6666666666667,2.00085065052558,0.0534913451652453,-0.129224102634378
17.2727272727273,1.98895276310137,0.0609896273325722,-0.127497326147921
17.8787878787879,1.97690985464764,0.0685107493828257,-0.125762276650651
18.4848484848485,1.93770058437629,0.0789480699228558,-0.124782953581159
19.0909090909091,1.89161711108849,0.0901226797776956,-0.124016441145485
19.6969696969697,1.84543433511792,0.101309979552191,-0.123261437840012
20.3030303030303,1.80436185113486,0.113337932074045,-0.124272327001879
20.9090909090909,1.76842672248795,0.126202723902924,-0.127053850384017
21.5151515151515,1.73242804587538,0.139076993670034,-0.129839528296446
22.1212121212121,1.69635633984658,0.151963515888021,-0.132629829729052
22.7272727272727,1.6602001380384,0.16486626508977,-0.135425296849335
23.3333333333333,1.62394544106984,0.177791143270388,-0.138226559762924
23.9393939393939,1.58757497619838,0.190197974925627,-0.141034354932249
24.5454545454545,1.57167876251214,0.20254542518384,-0.144768197856027
25.1515151515151,1.55742639452551,0.21488633687743,-0.148606669062412
25.7575757575758,1.54141642998735,0.227230980488871,-0.152447525127203
26.3636363636364,1.52503981728263,0.239579909552828,-0.156290875423653
26.969696969697,1.50826156472544,0.251933792768157,-0.160136834029924
27.5757575757576,1.49103833372357,0.2642934455914,-0.163985520217801
28.1818181818182,1.47586479663938,0.276517865710142,-0.167657922160486
28.7878787878788,1.46629949436818,0.288435796030867,-0.170908972645534
29.3939393939394,1.45599389700307,0.30037444118175,-0.174152423172764
30.0,1.44414992880754,0.312324690868194,-0.177386959365922
33.0,1.37748430318136,0.372990179064038,-0.1937293468141
36.0,1.29109539214879,0.436563358369366,-0.211231706214274
39.0,1.2094911276126,0.503031232211664,-0.22839434632537
42.0,1.1267796374141,0.570590602398456,-0.24276566307412
45.0,1.04207594325962,0.638905417925537,-0.255055378189673
48.0,0.979602162561122,0.707413712748828,-0.267346722368575
51.0,0.917346127838369,0.774965067514285,-0.278964857206485
54.0,0.854006002073409,0.841186517161637,-0.290238520320402
57.0,0.789348099850653,0.905748282520281,-0.301262882511631
60.0,0.722225378335935,0.966577376708067,-0.312244299632814
63.0,0.653355253781345,1.02395434630663,-0.323122334652854
66.0,0.58295812254936,1.07779707825916,-0.333852125038186
69.0,0.510927728522666,1.12711935402766,-0.344581915317522
72.0,0.43739867353944,1.16979476282333,-0.354863214489995
75.0,0.36329925092543,1.20746968144344,-0.365043209658299
78.0,0.288863515804984,1.23996287563813,-0.375092250424708
81.0,0.214660526519196,1.26482476483646,-0.38464436332513
84.0,0.141584562162515,1.28251744197187,-0.393569122859556
87.0,0.0699264417296017,1.29426711078168,-0.402299442380339
90.0,2.73915104527666e-10,1.29999999997754,-0.411028475858739
93.0,-0.0489485095041988,1.29426711074731,-0.415619079505733
96.0,-0.0991091936513502,1.28251744193011,-0.420209120647359
99.0,-0.150262368156504,1.26482476503123,-0.424282104530673
102.0,-0.202204460656555,1.2399628758329,-0.426701401363197
105.0,-0.254309475857368,1.2074696813077,-0.427807629645285
108.0,-0.306179071718928,1.16979476262694,-0.428527262307481
111.0,-0.35764940963726,1.12711935434911,-0.428901054297469
114.0,-0.408070686153272,1.07779707789848,-0.427742181999839
117.0,-0.457348677714589,1.02395434622952,-0.426581384712035
120.0,-0.505557764683655,0.966577376904203,-0.425710714842172
123.0,-0.552543670393773,0.905748281875151,-0.425411317602447
126.0,-0.597804201365229,0.841186517285126,-0.425327482673247
129.0,-0.642142289144411,0.774965068041743,-0.426500462415173
132.0,-0.685721513569081,0.707413713105078,-0.429402028409762
135.0,-0.7294531606631,0.638905417334317,-0.435667048507625
138.0,-0.774285739080396,0.57059060239378,-0.441932068535347
141.0,-0.82042169289911,0.50303123233871,-0.45055349388773
144.0,-0.868503181202292,0.43656335769512,-0.463020538950961
147.0,-0.922742643436693,0.372990179269018,-0.475752594055329
150.0,-0.882004571619419,0.311575904149007,-0.485409275165434
153.0,-0.793804114358126,0.254218299457996,-0.466219451498028
156.0,-0.705603657096834,0.201170851928003,-0.444143435248937
159.0,-0.61740319983554,0.152675138879567,-0.422064114404905
162.0,-0.529202742574248,0.109655618279608,-0.43176294342658
165.0,-0.441002285312955,0.0728631156823397,-0.457351839713153
168.0,-0.352801828051662,0.0465438583525731,-0.482940735999725
171.0,-0.264601370790369,0.0372282322340693,-0.449999998824567
174.0,-0.176400913529076,0.0322580480650534,-0.299999998653168
177.0,-0.0882004574258801,0.0291807784526497,-0.150000000451309
180.0,0.0,0.0280270148732245,0.0
