Alpha (deg),Cl,Cd,Cm
-180.0,0.0,0.0305414951794391,0.0
-177.0,0.0905040181393861,0.0316952301130373,0.120000000361047
-174.0,0.181008034921543,0.0347726107932974,0.239999998922534
-171.0,0.271512550379606,0.039743623798987,0.360000658682385
-168.0,0.362020668694375,0.0482612528881589,0.404109110414257
-165.0,0.452520088833044,0.0720219913215298,0.4102719933399
-162.0,0.543029048339844,0.109014534507399,0.416435525883065
-159.0,0.633523136783837,0.152131251728663,0.42800147659449
-156.0,0.724034505795155,0.200675749548291,0.450380762110055
-153.0,0.814537128710279,0.253751238078397,0.472759448056984
-150.0,0.905040178685546,0.311131047064885,0.492154548702799
-147.0,0.946361063738359,0.372565756956278,0.481703462474928
-144.0,0.889305186788289,0.436157926094802,0.468151080454345
-141.0,0.838948803026617,0.502644913186288,0.454894603955552
-138.0,0.790858934096793,0.570223340957569,0.445188737082035
-135.0,0.744413904753083,0.638557433863464,0.438028009952891
-132.0,0.698958138089537,0.707085625353434,0.430867282743576
-129.0,0.653365338909604,0.77465752242683,0.427333125065231
-126.0,0.60720521321955,0.84089996127863,0.425662777041727
-123.0,0.56030192396837,0.905483197385372,0.425379185871873
-120.0,0.51191516433708,0.966334558846397,0.425496874778254
-117.0,0.462456154009455,1.02373425599768,0.426259683776011
-114.0,0.412062694538308,1.07760012440929,0.427352241723975
-111.0,0.360673425537094,1.12694599760076,0.428442190858401
-108.0,0.308408854544291,1.16964551108458,0.428068276733024
-105.0,0.255858496765472,1.20734480386415,0.427364052721712
-102.0,0.203184172532214,1.23986261899609,0.426282886615662
-99.0,0.15082232087053,1.26474941353401,0.423901847340977
-96.0,0.0993786871856556,1.28246714870822,0.419883475629862
-93.0,0.0490315672983529,1.29424194445234,0.415352565780964
-90.0,-1.92066022884558e-10,1.29999999997744,0.41082030189034
-87.0,-0.0490315670043773,1.29424194448686,0.401280071991413
-84.0,-0.0993786870473905,1.28246714875005,0.391737989676668
-81.0,-0.150822321280753,1.26474941333904,0.381803589957942
-78.0,-0.203184172942437,1.23986261880112,0.370634505043528
-75.0,-0.255858496553516,1.20734480399999,0.358510307048218
-72.0,-0.30840885429934,1.16964551128108,0.346123899281108
-69.0,-0.36067342587201,1.12694599727916,0.333535240490473
-66.0,-0.41206269416251,1.07760012477015,0.320051179614677
-63.0,-0.46245615394018,1.02373425607482,0.306567118605678
-60.0,-0.511915164493097,0.966334558650189,0.293144983838371
-57.0,-0.560301923455198,0.905483198030739,0.279762617999668
-54.0,-0.607205213308863,0.8408999611551,0.266442518423958
-51.0,-0.653365339267309,0.774657521899208,0.25320900466292
-48.0,-0.698958138325174,0.707085624997081,0.240085795091681
-45.0,-0.744413904360014,0.638557434454857,0.227172303931618
-42.0,-0.827484876473097,0.570223340962246,0.21426070963999
-39.0,-0.904963154272419,0.502644913059205,0.185337841239923
-36.0,-0.977419767543052,0.436157926769241,0.134678849720133
-33.0,-1.04910497949918,0.372565756751233,0.0815184392714218
-30.0,-1.17206048246554,0.279217264777337,0.0518069136862095
-29.3939393939394,-1.20035462774891,0.25739485890336,0.0481696833422699
-28.7878787878788,-1.22827616697977,0.23574823467993,0.0445320286617682
-28.1818181818182,-1.25581973935012,0.214130529139566,0.0408939456272781
-27.5757575757576,-1.26277106029118,0.201496392666658,0.0375930298483547
-26.969696969697,-1.26077232490483,0.19267986188566,0.0344362899112525
-26.3636363636364,-1.25850118835196,0.18404950021479,0.0312789726713511
-25.7575757575758,-1.25595770603775,0.175427760352579,0.0281210043003506
-25.1515151515151,-1.25314193336659,0.166807391364206,0.0249622985358035
-24.5454545454545,-1.2477817032714,0.158188554707593,0.021802754296729
-23.9393939393939,-1.24109542157825,0.149755281950715,0.0187380755590349
-23.3333333333333,-1.22965158572849,0.142979409326933,0.0165323573676931
-22.7272727272727,-1.21813342488034,0.136208491342561,0.0143210842890303
-22.1212121212121,-1.20650926138779,0.129445832461106,0.0121040737059648
-21.5151515151515,-1.19472643512362,0.12269851569076,0.00988127266889359
-20.9090909090909,-1.18512347814683,0.115818214507761,0.00765341591349005
-20.3030303030303,-1.17549175047661,0.108852821662192,0.00546154739737454
-19.6969696969697,-1.1645900116022,0.102490354188266,0.00363310608375394
-19.0909090909091,-1.152384447559,0.0966726374946462,0.00218245626892553
-18.4848484848485,-1.13994735089428,0.0908583355699937,0.000766612998942486
-17.8787878787879,-1.12730628819782,0.0851742222243375,-0.000524967323287191
-17.2727272727273,-1.11447427092166,0.0800038455950962,-0.00129611153549748
-16.6666666666667,-1.10160271749728,0.074834955398566,-0.00207007879518379
-16.0606060606061,-1.08869868708188,0.0696673378387495,-0.00284636679713439
-15.4545454545455,-1.07815124397108,0.0648303619394388,-0.00301491878773171
-14.8484848484848,-1.06786008032515,0.0600300584317401,-0.00311779780007799
-14.2424242424242,-1.05756218426511,0.0552297593402354,-0.00322244148062575
-13.6363636363636,-1.04852065048599,0.0507296570506745,-0.00322786617744836
-13.030303030303,-1.04030070707432,0.0464389725560883,-0.00322284749518982
-12.4242424242424,-1.03205798236995,0.0421445540686149,-0.00304772982661325
-11.8181818181818,-1.01572271867493,0.0381491587813502,-0.00376820438779256
-11.2121212121212,-0.980308302847599,0.0348559535918507,-0.00681888119600133
-10.6060606060606,-0.944648217852028,0.0315603673900336,-0.00986975607361981
-10.0,-0.908498822541425,0.0282624622007426,-0.0131718283869033
-9.39393939393939,-0.84022501061217,0.0261723673216852,-0.0202001366977081
-8.78787878787879,-0.771918145205802,0.0240820082439773,-0.0271411862705099
-8.18181818181818,-0.703545416563397,0.0219913469903974,-0.0340013220653625
-7.57575757575758,-0.631276128150315,0.0204026445096312,-0.0401301814763513
-6.96969696969697,-0.557159709593294,0.0190291608356116,-0.0459705144102798
-6.36363636363636,-0.483041340663586,0.017655678910724,-0.0518162207366944
-5.75757575757576,-0.405190224404222,0.0165302349944002,-0.0576658970861466
-5.15151515151515,-0.321737527975915,0.0157768858540019,-0.0635113866745124
-4.54545454545454,-0.238276768066575,0.0150236090624805,-0.0693527542075161
-3.93939393939394,-0.154317197517101,0.0143139852820866,-0.0751468069904503
-3.33333333333333,-0.0659366189394093,0.0139964562703002,-0.080558061862339
-2.72727272727273,0.0224776563493192,0.0136790061340619,-0.0859644335473812
-2.12121212121212,0.110920203959229,0.0133616478757975,-0.0914885189183898
-1.51515151515152,0.198702843287588,0.0131913726142359,-0.0964490704793345
-0.909090909090912,0.286269550726995,0.013070064265922,-0.101079088391822
-0.303030303030302,0.372875102180978,0.013017929300743,-0.105297874074735
0.303030303030302,0.45879701010341,0.0130008843584504,-0.10929567433931
0.909090909090912,0.544039312975963,0.0130189301745827,-0.113064708126068
1.51515151515152,0.628159261504048,0.0130849316495815,-0.116499204472764
2.12121212121212,0.711829202881247,0.0131699302129241,-0.119806897627349
2.72727272727273,0.794496855525279,0.0132970240454705,-0.122838774291146
3.33333333333333,0.876475571471876,0.0134530832281757,-0.125705519432471
3.93939393939394,0.95789071955124,0.0136328488505828,-0.128436981989063
4.54545454545455,1.03809162287267,0.0138612762904702,-0.13090994704226
5.15151515151515,1.11781136466769,0.0141087564941423,-0.133287412825127
5.75757575757576,1.19649346697879,0.014397096591867,-0.13546416370441
6.36363636363637,1.27419593362517,0.0147267082841534,-0.137462160272382
6.96969696969697,1.35124811365579,0.0150839408628679,-0.139341011848836
7.57575757575757,1.42616841372553,0.0155214994281405,-0.140891903149291
8.18181818181818,1.50014635994537,0.0159959856093716,-0.142301178762447
8.78787878787879,1.57218386375186,0.0165464929680762,-0.143420132788887
9.39393939393939,1.64160811546706,0.0171997708640759,-0.144186872266386
10.0,1.70966695140533,0.0179091618056978,-0.144764110398887
10.6060606060606,1.77302578614285,0.01886432539006,-0.144796371243069
11.2121212121212,1.83459213880991,0.0199689332099947,-0.144635677718574
11.8181818181818,1.88901655549857,0.0213516817776951,-0.144115668943663
12.4242424242424,1.93384235768623,0.0233535763412728,-0.143240280085176
13.030303030303,1.9738476379382,0.0257009156065491,-0.142208410467801
13.6363636363636,1.99586045024071,0.0296014272118124,-0.141120930430752
14.2424242424242,2.01253709988622,0.0341007344571543,-0.140026141457539
14.8484848484848,2.02229060545041,0.039493548466662,-0.138879358821098
15.4545454545455,2.02881756055241,0.0454005827197899,-0.137758521533263
16.0606060606061,2.03324652181302,0.051575390754518,-0.136612000783691
16.6666666666667,2.02785032116153,0.0587246429689568,-0.135094776209369
17.2727272727273,2.02239606942337,0.0659027138499748,-0.133576587682769
17.8787878787879,2.01691367137244,0.0731050507923037,-0.132057260558818
18.4848484848485,1.98391686432378,0.0831022824026549,-0.131027404830222
19.0909090909091,1.9440254223994,0.0938069918950934,-0.130160324197713
19.6969696969697,1.90411470737803,0.104525183696937,-0.129329763153954
20.3030303030303,1.86819042523459,0.116047719129907,-0.130124855326462
20.9090909090909,1.83625782808993,0.128370546646487,-0.132526422934434
21.5151515151515,1.80431289727943,0.140703443927037,-0.134932409933573
22.1212121212121,1.7723537926019,0.15304935873159,-0.137343315932638
22.7272727272727,1.74037828861564,0.165412513772623,-0.139759718762211
23.3333333333333,1.70838366825985,0.177799179580314,-0.142182290388776
23.9393939393939,1.67636657916547,0.189869838471318,-0.144611816866006
24.5454545454545,1.66478325894601,0.20212620651128,-0.148374853928387
25.1515151515151,1.65447974339468,0.214403600302913,-0.152287994749204
25.7575757575758,1.64105683603204,0.226681736507736,-0.156203761301243
26.3636363636364,1.62728450139368,0.238960725243775,-0.160122262629409
26.969696969697,1.61315583898225,0.251240699539375,-0.164043613501409
27.5757575757576,1.59866230225786,0.263521821618282,-0.167967934837672
28.1818181818182,1.58483414155939,0.27571856007289,-0.171703184161181
28.7878787878788,1.57309569268983,0.287720204381639,-0.174990283219835
29.3939393939394,1.56051091779005,0.299725969617946,-0.178275884712799
30.0,1.54624266106725,0.311734043415318,-0.181559727366256
33.0,1.46765769423095,0.372565756751234,-0.198135441560747
36.0,1.36882400110256,0.436157926769241,-0.215452597378891
39.0,1.27168308858976,0.502644913059205,-0.232416677701167
42.0,1.16729847727657,0.570223340962246,-0.246479169533369
45.0,1.06344843480002,0.638557434454857,-0.258377808760426
48.0,0.99851162617882,0.707085624997081,-0.270278178786519
51.0,0.933379056096156,0.774657521899209,-0.281516770093539
54.0,0.867436019012662,0.8408999611551,-0.292416858645663
57.0,0.800431319221711,0.905483198030739,-0.303073249429368
60.0,0.731307377847282,0.96633455865019,-0.31371013454477
63.0,0.660651648485971,1.02373425607482,-0.324294648281317
66.0,0.588660991660728,1.07760012477015,-0.334750393705803
69.0,0.515247751245728,1.12694599727916,-0.345206139027002
72.0,0.440584077570485,1.16964551128108,-0.355290639078575
75.0,0.365512137933594,1.20734480399999,-0.36529128320091
78.0,0.290263104203481,1.23986261880112,-0.375173386527179
81.0,0.215460458972504,1.26474941333904,-0.384611668971588
84.0,0.141969552924843,1.28246714875005,-0.393475583310688
87.0,0.0700450957205388,1.29424194448686,-0.402149000083604
90.0,2.74379889005778e-10,1.29999999997744,-0.410820301893745
93.0,-0.0490315672983527,1.29424194445234,-0.415352565780964
96.0,-0.0993786871856559,1.28246714870822,-0.419883475629862
99.0,-0.150822320870531,1.26474941353401,-0.423901847340977
102.0,-0.203184172532214,1.23986261899609,-0.426282886615662
105.0,-0.255858496765472,1.20734480386415,-0.427364052721712
108.0,-0.30840885454429,1.16964551108458,-0.428068276733024
111.0,-0.360673425537095,1.12694599760076,-0.428442190858401
114.0,-0.412062694538309,1.07760012440929,-0.427352241723975
117.0,-0.462456154009455,1.02373425599768,-0.426259683776011
120.0,-0.511915164337081,0.966334558846397,-0.425496874778254
123.0,-0.56030192396837,0.905483197385372,-0.425379185871874
126.0,-0.60720521321955,0.84089996127863,-0.425662777041727
129.0,-0.653365338909605,0.774657522426829,-0.427333125065231
132.0,-0.698958138089538,0.707085625353433,-0.430867282743576
135.0,-0.744413904753083,0.638557433863464,-0.438028009952891
138.0,-0.790858934096794,0.570223340957568,-0.445188737082036
141.0,-0.838948803026618,0.502644913186287,-0.454894603955552
144.0,-0.889305186788289,0.436157926094802,-0.468151080454345
147.0,-0.94636106373836,0.372565756956278,-0.481703462474928
150.0,-0.905040178685545,0.311131047064885,-0.492154548702799
153.0,-0.814536160715045,0.253750656127501,-0.472759208692887
156.0,-0.724032142744545,0.200674420323875,-0.450380177814276
159.0,-0.633528124774044,0.152133846501187,-0.428002709842359
162.0,-0.543024106803545,0.109012430059325,-0.436435189503656
165.0,-0.452520088833045,0.0720219913215299,-0.460271993506427
168.0,-0.362016070862544,0.048260442063995,-0.484108797509198
171.0,-0.271512052892044,0.0397435940896266,-0.449999998824567
174.0,-0.181008034921543,0.0347726107932974,-0.299999998653168
177.0,-0.0905040181393861,0.0316952301130373,-0.150000000451309
180.0,0.0,0.0305414951794391,0.0
