Alpha (deg),Cl,Cd,Cm
-180.0,0.0,0.0147317105498312,0.0
-177.0,0.0809180665743446,0.0160188931220918,0.120000000361047
-174.0,0.161836131935214,0.0194527589253626,0.239999998922534
-171.0,0.242754643153527,0.025001372804267,0.360000658682385
-168.0,0.323676375623281,0.0382597775582641,0.397737710960954
-165.0,0.404590331205255,0.0722700377878073,0.39434470831901
-162.0,0.485512815770155,0.112633465781867,0.390951348027248
-159.0,0.566422004376764,0.159619064431977,0.39619318279514
-156.0,0.647346643237695,0.212521224619153,0.418710077781193
-153.0,0.728263462366323,0.270378767237302,0.441224886038521
-150.0,0.809180663321988,0.332948215579077,0.461410241229793
-147.0,0.850853084451677,0.399959836460929,0.458301203756468
-144.0,0.814032667222441,0.469341353344579,0.452879438343937
-141.0,0.780139382985578,0.541901905446576,0.447652547708318
-138.0,0.746549547236489,0.61567062568218,0.444184672863103
-135.0,0.712824603614682,0.690280530879792,0.442798597585936
-132.0,0.677680926606375,0.76512232023318,0.441324379539075
-129.0,0.640384326019858,0.838941954478114,0.442090164632263
-126.0,0.601725929720167,0.911328662167121,0.444012004663611
-123.0,0.561047813105141,0.981922537139687,0.446768494591227
-120.0,0.517212090114846,1.04847073253379,0.449471341452696
-117.0,0.471252179222342,1.11127269165168,0.452057976302729
-114.0,0.423424940044572,1.17023752924282,0.454586541528103
-111.0,0.373582727057335,1.22429191991016,0.45711490884775
-108.0,0.321691737220273,1.27112138615755,0.45737207467207
-105.0,0.268774135010473,1.31251410319153,0.457116189010615
-102.0,0.215018968789456,1.34827217319206,0.45635278845065
-99.0,0.16066139716409,1.37572934506418,0.454038709621948
-96.0,0.106488568272814,1.39538644057924,0.44977195575501
-93.0,0.0528539175932486,1.40857691616706,0.444894973535935
-90.0,-2.07038902654598e-10,1.4152199620155,0.440017961725924
-87.0,-0.0528539172763555,1.40857691620689,0.429409376337091
-84.0,-0.106488568126553,1.39538644062578,0.418800777042695
-81.0,-0.160661397589948,1.37572934484907,0.407734107835993
-78.0,-0.215018969215313,1.34827217297696,0.395201650633702
-75.0,-0.268774134794786,1.31251410334084,0.381505186250411
-72.0,-0.321691736976492,1.27112138637309,0.367474644639335
-69.0,-0.373582727382171,1.22429191955787,0.353155554545937
-66.0,-0.423424939680089,1.1702375296381,0.337559050795839
-63.0,-0.471252179157188,1.1112726917361,0.321962543617937
-60.0,-0.517212090256198,1.04847073231921,0.30634237913337
-57.0,-0.561047812640271,0.981922537845458,0.290674907106044
-54.0,-0.601725929797421,0.9113286620321,0.274985932034727
-51.0,-0.640384326311123,0.838941953901659,0.259393730433217
-48.0,-0.677680926791649,0.765122319843982,0.243936884568106
-45.0,-0.712824603313627,0.690280531525647,0.228743406110447
-42.0,-0.721090289240369,0.615670625687286,0.213549906352888
-39.0,-0.734144289872979,0.541901905307875,0.184806440790946
-36.0,-0.752430308974586,0.469341354080473,0.137831970180438
-33.0,-0.778636524515124,0.399959836237236,0.0886282609797525
-30.0,-0.904963281736064,0.297915605812202,0.0582214883231722
-29.3939393939394,-0.940754063988514,0.274031250645825,0.0539797805110077
-28.7878787878788,-0.976809945386572,0.25015418416927,0.0497382417928822
-28.1818181818182,-1.01316393234268,0.2262741649842,0.0454946576503113
-27.5757575757576,-1.02258218626165,0.212805544683082,0.0418143339503957
-26.969696969697,-1.02104139094173,0.203723035729501,0.0383624202128854
-26.3636363636364,-1.02008948922029,0.194613084933084,0.0348707329881311
-25.7575757575758,-1.01885467564268,0.185581116685778,0.0314416715492156
-25.1515151515151,-1.01780127561392,0.176549148438473,0.0280207801931566
-24.5454545454545,-1.01808867950696,0.167558556642559,0.0245998888370977
-23.9393939393939,-1.01888229310068,0.15875346012912,0.0212987637896911
-23.3333333333333,-1.0199944215442,0.150804785350947,0.0186519017813233
-22.7272727272727,-1.02110660959119,0.142856078003469,0.0160050092383256
-22.1212121212121,-1.02221884345109,0.1349073406358,0.0133580916880011
-21.5151515151515,-1.02333111328302,0.126958575537802,0.0107111533995164
-20.9090909090909,-1.02444341187631,0.119009784772224,0.00806419772260188
-20.3030303030303,-1.02555573382677,0.11106097020218,0.00541722732242601
-19.6969696969697,-1.02521072474556,0.103979729389494,0.0034035916760634
-19.0909090909091,-1.02340873302639,0.0977660790065527,0.00199440506474987
-18.4848484848485,-1.02160721581592,0.0915524282730062,0.000579598860140863
-17.8787878787879,-1.0194647655267,0.0854684309577539,-0.000738453343790763
-17.2727272727273,-1.0159610266771,0.0799027687044865,-0.00167876441947068
-16.6666666666667,-1.01246416052304,0.0743366046750909,-0.00260988620375797
-16.0606060606061,-1.00897419222862,0.0687698858236526,-0.00353294353843518
-15.4545454545455,-1.02445273085028,0.0625246762726447,-0.00350599026606324
-14.8484848484848,-1.04222005597275,0.0561970709128807,-0.00337241871121571
-14.2424242424242,-1.05761875747252,0.0498589953469678,-0.00323756392546059
-13.6363636363636,-1.06721695108843,0.0443156577806036,-0.00363806176440808
-13.030303030303,-1.07362281437561,0.0393785337935499,-0.00440658734812581
-12.4242424242424,-1.08073165287187,0.0344282329672136,-0.00518228231214569
-11.8181818181818,-1.07166995877754,0.0299541719791605,-0.00788090632949848
-11.2121212121212,-1.02306558560314,0.0265913374001551,-0.0149122200029281
-10.6060606060606,-0.974685053224347,0.0232285028211497,-0.0220283678750144
-10.0,-0.926818015201384,0.0198656682421443,-0.0291445157471007
-9.39393939393939,-0.856101802813905,0.0180869194444994,-0.0350455456343589
-8.78787878787879,-0.786537620936257,0.0162854310168413,-0.0411641959778989
-8.18181818181818,-0.716947214545168,0.0145026541270299,-0.0473347986443104
-7.57575757575758,-0.640591651894163,0.0133759282804432,-0.0527377993092782
-6.96969696969697,-0.560577227921891,0.012531336475198,-0.0577838724629382
-6.36363636363636,-0.480794513074933,0.0116866343668045,-0.0628126448011445
-5.75757575757576,-0.399892734293588,0.0110365059682885,-0.0674930999166966
-5.15151515151515,-0.317181926926253,0.0106772268407671,-0.0716525944098421
-4.54545454545454,-0.23447882110198,0.010316437407319,-0.0758086576081238
-3.93939393939394,-0.151936957259184,0.0099763615513074,-0.079865119556899
-3.33333333333333,-0.070760994219752,0.00983387580610846,-0.083090228536826
-2.72727272727273,0.0104009571629418,0.0096913501377272,-0.0863223629213948
-2.12121212121212,0.0915234402570531,0.00954878397599501,-0.0896170066406371
-1.51515151515152,0.171665615894467,0.00948400088812509,-0.0924761200798651
-0.909090909090912,0.251932697265986,0.00944664838174304,-0.0952101264778513
-0.303030303030302,0.331579897445616,0.00945450637848015,-0.0977498195398726
0.303030303030302,0.410543708327797,0.00948596861570956,-0.100192506004997
0.909090909090912,0.489077342483709,0.0095410336258384,-0.10253800443903
1.51515151515152,0.567060827166922,0.00963565286930595,-0.104733252517612
2.12121212121212,0.644818911239887,0.00974554542290448,-0.106869844841554
2.72727272727273,0.722005511550374,0.00988859811379282,-0.108878168868916
3.33333333333333,0.7987618054785,0.0100523683070675,-0.110802870362094
3.93939393939394,0.875166545999226,0.0102330923724882,-0.112659140030071
4.54545454545455,0.950714772335558,0.0104565991189804,-0.114364891445327
5.15151515151515,1.02575412977285,0.0107151036922014,-0.115998345249727
5.75757575757576,1.09954487670945,0.0110644076448812,-0.117465241490587
6.36363636363637,1.17270813815293,0.0114196373614302,-0.118827078587909
6.96969696969697,1.24545646642832,0.0117788193528327,-0.120118870700351
7.57575757575757,1.31666817809075,0.0121995852580728,-0.121195724665892
8.18181818181818,1.38704377460983,0.012658679862603,-0.122166695968469
8.78787878787879,1.45565939931661,0.0132013612087469,-0.122916982717774
9.39393939393939,1.52221033679458,0.0138242065353946,-0.123411899921179
10.0,1.58765020947526,0.0144903100979764,-0.123769301530167
10.6060606060606,1.6486354762722,0.015326507119762,-0.12360369159136
11.2121212121212,1.70738442204301,0.0162513062422819,-0.123201061221906
11.8181818181818,1.76197625342102,0.0173398470896589,-0.122358382266401
12.4242424242424,1.80968510173421,0.01874629230112,-0.120916472695943
13.030303030303,1.85393168522984,0.0203207210691302,-0.119192544243814
13.6363636363636,1.88827269537445,0.0224188382415823,-0.116963138133615
14.2424242424242,1.90450773265701,0.0256653570363354,-0.113769207046828
14.8484848484848,1.89512024454457,0.0308331243560817,-0.109200681819856
15.4545454545455,1.87923020201715,0.0367251682051792,-0.10626018616749
16.0606060606061,1.85848703358182,0.0432710327747071,-0.104006297350148
16.6666666666667,1.80434893121934,0.0535355668371297,-0.103236395786137
17.2727272727273,1.75021082885686,0.0638001008995524,-0.102468754384938
17.8787878787879,1.69607272649438,0.074064634961975,-0.101702504021816
18.4848484848485,1.63915657299721,0.0863619957479021,-0.103290046203241
19.0909090909091,1.58154590686368,0.0991675631069106,-0.105497335262256
19.6969696969697,1.52393524073016,0.111973130465919,-0.107748372173143
20.3030303030303,1.47970461033795,0.124661157275376,-0.110762661480847
20.9090909090909,1.44885401366892,0.137231643553008,-0.114496701347737
21.5151515151515,1.41800341699989,0.149802129830641,-0.118227497854051
22.1212121212121,1.38715282033086,0.162386275231125,-0.121955779338029
22.7272727272727,1.35630222366184,0.175014025912356,-0.125682165353626
23.3333333333333,1.32545162699281,0.187624747511895,-0.129407203069787
23.9393939393939,1.29460103032378,0.200223022823693,-0.133131396808452
24.5454545454545,1.28289476283923,0.212218048883576,-0.136735324725839
25.1515151515151,1.27398920403342,0.224137772784775,-0.140329405307568
25.7575757575758,1.26724992662485,0.23604314834859,-0.143927863041192
26.3636363636364,1.26012470465094,0.247924488210293,-0.147531631848674
26.969696969697,1.25159028893147,0.260174777406889,-0.151141926311833
27.5757575757576,1.2447821609469,0.272310021247376,-0.154760354044741
28.1818181818182,1.23644499040421,0.285118575004455,-0.158525298585884
28.7878787878788,1.22209196493859,0.299736382646477,-0.162612213213468
29.3939393939394,1.20788230137787,0.314306754666616,-0.166699138856437
30.0,1.19385745625481,0.328820442457091,-0.170786084100599
33.0,1.13454328419639,0.399959836237236,-0.190520243560126
36.0,1.09447533519778,0.469341354080473,-0.209278361551302
39.0,1.06377471935279,0.541901905307876,-0.227764245108275
42.0,1.03860118241865,0.615670625687287,-0.244015507995377
45.0,1.01832086187661,0.690280531525647,-0.258600957286482
48.0,0.968115609702355,0.765122319843982,-0.273186338225465
51.0,0.914834751873033,0.83894195390166,-0.287090603812128
54.0,0.859608471139173,0.9113286620321,-0.300644826752653
57.0,0.801496875200387,0.981922537845458,-0.3139384403152
60.0,0.73887441465171,1.04847073231921,-0.327080663511132
63.0,0.673217398795983,1.1112726917361,-0.339889832736238
66.0,0.604892770971555,1.1702375296381,-0.352532473555608
69.0,0.533689610545958,1.22429191955787,-0.36517511278912
72.0,0.459559624252132,1.27112138637309,-0.376964384191041
75.0,0.383963049706837,1.31251410334084,-0.388560890695024
78.0,0.307169956021875,1.34827217297696,-0.399956394276237
81.0,0.229516282271354,1.37572934484907,-0.410707353477979
84.0,0.152126525895075,1.39538644062578,-0.420646662254268
87.0,0.075505596109079,1.40857691620689,-0.430332318995008
90.0,2.95769709892321e-10,1.4152199620155,-0.440017961729539
93.0,-0.0528539175932484,1.40857691616706,-0.444894973535935
96.0,-0.106488568272814,1.39538644057924,-0.44977195575501
99.0,-0.16066139716409,1.37572934506418,-0.454038709621948
102.0,-0.215018968789455,1.34827217319206,-0.45635278845065
105.0,-0.268774135010474,1.31251410319153,-0.457116189010615
108.0,-0.321691737220273,1.27112138615755,-0.45737207467207
111.0,-0.373582727057336,1.22429191991016,-0.45711490884775
114.0,-0.423424940044572,1.17023752924282,-0.454586541528103
117.0,-0.471252179222342,1.11127269165168,-0.452057976302729
120.0,-0.517212090114846,1.04847073253379,-0.449471341452696
123.0,-0.561047813105142,0.981922537139687,-0.446768494591227
126.0,-0.601725929720167,0.911328662167121,-0.444012004663611
129.0,-0.640384326019858,0.838941954478114,-0.442090164632263
132.0,-0.677680926606376,0.76512232023318,-0.441324379539075
135.0,-0.712824603614682,0.690280530879792,-0.442798597585936
138.0,-0.746549547236489,0.61567062568218,-0.444184672863103
141.0,-0.780139382985579,0.541901905446575,-0.447652547708318
144.0,-0.814032667222441,0.469341353344579,-0.452879438343937
147.0,-0.850853084451678,0.399959836460929,-0.458301203756468
150.0,-0.809180663321988,0.332948215579076,-0.461410241229793
153.0,-0.728262596898641,0.270378132761369,-0.441224645224728
156.0,-0.647344530475294,0.212519775868774,-0.418709489914091
159.0,-0.566426464051948,0.15962189180614,-0.396194423676568
162.0,-0.485508397628602,0.112631171371122,-0.410951533427485
165.0,-0.404590331205255,0.0722700377878075,-0.444344708485537
168.0,-0.323672264781908,0.0382581682214939,-0.477737883543589
171.0,-0.242754198358561,0.0250013396374498,-0.449999998824567
174.0,-0.161836131935214,0.0194527589253626,-0.299999998653168
177.0,-0.0809180665743446,0.0160188931220918,-0.150000000451309
180.0,0.0,0.0147317105498312,0.0
