Alpha (deg),Cl,Cd,Cm
-180.0,9.99956900108589e-05,0.349991742771221,-9.99956900108589e-05
-177.0,0.000108182339015592,0.34999166550388,-9.78096826804698e-05
-174.0,0.000116535527858563,0.349991459408608,-9.55059016620131e-05
-171.0,0.000124888681656388,0.349991126498129,-9.32021652702975e-05
-168.0,0.000133206210387149,0.349991544878852,-9.33805516582925e-05
-165.0,0.000141506664871671,0.349991518311294,-9.47999407836103e-05
-162.0,0.000149806448963619,0.349990428058219,-9.62193738493489e-05
-159.0,0.00015414550694598,0.349990292862054,-9.79004935755673e-05
-156.0,0.000150561984681885,0.349992524472016,-9.99997591197288e-05
-153.0,0.00014697907706207,0.349994451026034,-9.99997799269042e-05
-150.0,0.00014339613943018,0.349996087686587,-9.99997965916849e-05
-147.0,0.000134341858032586,0.350000000001663,-9.99998171934552e-05
-144.0,0.000132328777054283,0.350001218636936,-9.99998359821549e-05
-141.0,0.000129801813394725,0.35000351680411,-9.99998541389713e-05
-138.0,0.00012789766190301,0.350006069122226,-9.999986140561e-05
-135.0,0.000126256615060671,0.350008734554717,-9.9999863696576e-05
-132.0,0.000124524433766246,0.35001138739322,-9.9999865987313e-05
-129.0,0.000122785006912533,0.350013988000102,-9.99998668924362e-05
-126.0,0.000121066124279409,0.350016444212797,-9.99998636398783e-05
-123.0,0.000119380793315284,0.350019012767813,-9.99998606817792e-05
-120.0,0.000117773160459342,0.350021833616524,-9.99998577761799e-05
-117.0,0.000115932235401184,0.350023739382584,-9.99998530689938e-05
-114.0,0.000114141931675554,0.350025883971005,-9.99998483887168e-05
-111.0,0.000112405184766486,0.350028333976257,-9.99998436215163e-05
-108.0,0.000110622734526781,0.350030034211198,-9.99998395294632e-05
-105.0,0.000108804706408059,0.35003147268991,-9.9999835858261e-05
-102.0,0.000106984714860922,0.350033261127597,-9.99998320011797e-05
-99.0,0.000105221576403462,0.350034821556323,-9.99998291702636e-05
-96.0,0.000103568074910786,0.350035379459493,-9.99998288358367e-05
-93.0,0.000101830901693329,0.350036338639419,-9.99998283057468e-05
-90.0,9.99953285190307e-05,0.350037703820502,-9.99998277535635e-05
-87.0,9.81600505267923e-05,0.350036338494801,-9.99998348324704e-05
-84.0,9.64231725846263e-05,0.35003537941469,-9.99998418645953e-05
-81.0,9.47699663932126e-05,0.350034821611351,-9.99998487177869e-05
-78.0,9.30069403345382e-05,0.350033261328918,-9.99998575355251e-05
-75.0,9.11869487449117e-05,0.350031472891209,-9.99998671196295e-05
-72.0,8.93689206238474e-05,0.350030034412492,-9.99998764899951e-05
-69.0,8.75874686457924e-05,0.350028334158516,-9.99998859839285e-05
-66.0,8.58537366608889e-05,0.350025883822593,-9.99998957124971e-05
-63.0,8.40664479301971e-05,0.350023738903567,-9.99999052528552e-05
-60.0,8.22285512234924e-05,0.35002183275322,-9.99999146030946e-05
-57.0,8.06179140909816e-05,0.350019012193433,-9.99999227712829e-05
-54.0,7.89295516550707e-05,0.350016444034876,-9.99999307780448e-05
-51.0,7.7207637526739e-05,0.350013988218614,-9.99999386040078e-05
-48.0,7.54671998915817e-05,0.350011387761717,-9.99999448587511e-05
-45.0,7.37350185517904e-05,0.35000873492315,-9.99999503551095e-05
-42.0,7.20939717375746e-05,0.350006069490698,-9.99999557569672e-05
-39.0,7.01898816372892e-05,0.3500035171477,-9.9999958397421e-05
-36.0,6.7662917925107e-05,0.35000121898047,-9.99999544117076e-05
-33.0,6.56498370051467e-05,0.350000000001665,-9.8607782262653e-05
-30.0,6.44849502422391e-05,0.34999841541358,-9.71683189680845e-05
-29.3939393939394,6.51839732130535e-05,0.349998985351149,-9.73246130371794e-05
-28.7878787878788,6.58829948484759e-05,0.349999555284785,-9.74809071062743e-05
-28.1818181818182,6.65820152560889e-05,0.349999999927852,-9.76372011753639e-05
-27.5757575757576,6.60857693020166e-05,0.349999988346917,-9.78194477832747e-05
-26.969696969697,6.50772656223039e-05,0.34999954856184,-9.80128169056106e-05
-26.3636363636364,6.40687605264288e-05,0.349999108776326,-9.82061860279413e-05
-25.7575757575758,6.30602539191116e-05,0.349998668990405,-9.83995551502755e-05
-25.1515151515151,6.20517456957764e-05,0.349998229204108,-9.85929242726113e-05
-24.5454545454545,6.10432357428664e-05,0.349997789417461,-9.87862933949472e-05
-23.9393939393939,6.00214628639906e-05,0.349997343572642,-9.89836876733891e-05
-23.3333333333333,5.88803379164005e-05,0.349996843206809,-9.92173083749995e-05
-22.7272727272727,5.77392100731544e-05,0.349996342840545,-9.94509290766113e-05
-22.1212121212121,5.65980790649401e-05,0.349995842473869,-9.96845497782227e-05
-21.5151515151515,5.54569778790093e-05,0.349995342106798,-9.9918171666116e-05
-20.9090909090909,5.43158951567813e-05,0.349994841739349,-0.000100064103988459
-20.3030303030303,5.31748124343173e-05,0.349994341371538,-0.000100321466072157
-19.6969696969697,5.28315833228654e-05,0.349993939414196,-0.000100646458750424
-19.0909090909091,5.44571333181976e-05,0.34999394516113,-0.000100739077429987
-18.4848484848485,5.37430449396026e-05,0.349993711681189,-0.000100836547210782
-17.8787878787879,5.49467601650977e-05,0.349993679840998,-0.000100898098883487
-17.2727272727273,5.49774107655859e-05,0.349993538357449,-0.000100938936322532
-16.6666666666667,5.49568621480284e-05,0.349993402982746,-0.0001009713695551
-16.0606060606061,5.62702041834034e-05,0.349993391912652,-0.00010099545059227
-15.4545454545455,5.66346136025436e-05,0.349993267963641,-0.000101044110474961
-14.8484848484848,5.73916711474887e-05,0.349993182260445,-0.000101095432442556
-14.2424242424242,5.89292261728158e-05,0.349993161717141,-0.000101133346940237
-13.6363636363636,6.03210316231645e-05,0.349993113254555,-0.000101205974427983
-13.030303030303,6.12172724483023e-05,0.349993025617059,-0.000101255060204029
-12.4242424242424,6.35330697197622e-05,0.349993041337729,-0.000101336316888242
-11.8181818181818,6.49778392861067e-05,0.349992987874692,-0.000101390809142652
-11.2121212121212,6.70363207187635e-05,0.349992963274311,-0.000101432057439406
-10.6060606060606,6.80386749961348e-05,0.349992869978212,-0.00010140092895828
-10.0,6.88116006653527e-05,0.349992823647383,-0.000101289353428714
-9.39393939393939,7.07237663471055e-05,0.349992815442168,-0.000101276707918017
-8.78787878787879,7.38580907655856e-05,0.349992819427271,-0.0001014947501031
-8.18181818181818,7.82739532497832e-05,0.349992850591852,-0.00010184465149108
-7.57575757575758,8.19672895187471e-05,0.34999289192325,-0.000102097379944998
-6.96969696969697,8.55767121469269e-05,0.349992919494177,-0.000102354491410823
-6.36363636363636,8.9467570046806e-05,0.349992951069683,-0.000102645034404394
-5.75757575757576,9.29936968965986e-05,0.349992999356441,-0.000102854304294698
-5.15151515151515,9.66767589213255e-05,0.349993019789932,-0.000103169582087935
-4.54545454545454,9.99998938423993e-05,0.349993051610871,-0.000103400112302213
-3.93939393939394,9.99999726713854e-05,0.349993090518723,-0.000103538708668015
-3.33333333333333,0.000102104563831917,0.349993101022381,-0.000103617063217622
-2.72727272727273,0.000107252898597504,0.349993130972691,-0.000103580865911987
-2.12121212121212,0.000109173300118226,0.349993160922999,-0.000103563259781107
-1.51515151515152,0.000110872232017382,0.349993165652132,-0.000103548067592854
-0.909090909090912,0.000112485357262299,0.349993187872749,-0.000103516241153121
-0.303030303030302,0.000114011692232017,0.349993192852192,-0.00010348068317243
0.303030303030302,0.000115905676322437,0.349993206102242,-0.000103465793429122
0.909090909090912,0.000118066581947865,0.349993215127413,-0.000103461219529576
1.51515151515152,0.000120355930433138,0.349993222322884,-0.00010347433811108
2.12121212121212,0.000122529939662743,0.349993226895244,-0.000103494457595954
2.72727272727273,0.000124795528884072,0.349993234108963,-0.000103500115833907
3.33333333333333,0.000127035509377153,0.349993246985179,-0.000103529290403614
3.93939393939394,0.000129287278088922,0.349993242976982,-0.000103544413173783
4.54545454545455,0.000131551829634521,0.349993250264807,-0.000103582362774309
5.15151515151515,0.000133828796445093,0.349993257728593,-0.000103599894782101
5.75757575757576,0.000136105903623864,0.349993250170113,-0.000103626057241469
6.36363636363637,0.000138377857364622,0.349993260950705,-0.000103648751923345
6.96969696969697,0.000140673659393624,0.349993258116397,-0.000103663929056793
7.57575757575757,0.000143076720352929,0.349993250486975,-0.000103701967147611
8.18181818181818,0.000145302176062644,0.349993251962386,-0.000103697090030105
8.78787878787879,0.000147738464734131,0.349993238001863,-0.000103717395462167
9.39393939393939,0.000149824564965907,0.349993220373877,-0.000103706930869463
10.0,0.000151234772475611,0.349993198602953,-0.000103636093565864
10.6060606060606,0.000153193160665262,0.349993139437758,-0.000103579511869083
11.2121212121212,0.000153963534799247,0.349993064628866,-0.000103259421066974
11.8181818181818,0.000154779147335461,0.349992980979586,-0.000102884894639075
12.4242424242424,0.000156486370071492,0.349992841913354,-0.000102575261854567
13.030303030303,0.000158933107586705,0.349992677237424,-0.000102384741367951
13.6363636363636,0.000162308609336779,0.349992457428419,-0.000102322109043607
14.2424242424242,0.00016457895169622,0.349992339939178,-0.000102214854196613
14.8484848484848,0.000166715430801712,0.349992235379165,-0.000102121653583306
15.4545454545455,0.00016882694213613,0.349992154001,-0.000102057327769653
16.0606060606061,0.000170178103705843,0.349992151963429,-0.000101983472981517
16.6666666666667,0.000172245978345476,0.349992110521683,-0.000101910122705623
17.2727272727273,0.000174592610036883,0.349992053110435,-0.000101881045069278
17.8787878787879,0.000174965330710541,0.34999219481912,-0.000101853760779406
18.4848484848485,0.000175219150317929,0.349992284452806,-0.000101738853071538
19.0909090909091,0.000176104395755217,0.349992311273349,-0.00010164702297159
19.6969696969697,0.000176718220580213,0.349992375356329,-0.00010159783699369
20.3030303030303,0.000176340335717035,0.34999250126054,-0.000101605796124511
20.9090909090909,0.000175179962186328,0.349992655702293,-0.000101604559182508
21.5151515151515,0.000174486032911758,0.34999276529401,-0.000101649701391145
22.1212121212121,0.000174477786713978,0.349992802523344,-0.000101747889763032
22.7272727272727,0.000174933383332437,0.349992783538517,-0.000101891968752047
23.3333333333333,0.000175516911857722,0.349992755561634,-0.000102052800337255
23.9393939393939,0.000176117514413206,0.34999272135942,-0.00010226176813308
24.5454545454545,0.000175008509831501,0.349992853071432,-0.000102529592862307
25.1515151515151,0.000172902368559269,0.349993205348663,-0.000102917900088474
25.7575757575758,0.000170528342823745,0.349993632923178,-0.00010335416626845
26.3636363636364,0.000168128959161185,0.34999407590307,-0.000103790698800568
26.969696969697,0.000165746288943919,0.349994508513317,-0.000104227408360808
27.5757575757576,0.000163374488870716,0.34999493696553,-0.000104660020795951
28.1818181818182,0.000160987302700089,0.349995364428597,-0.000105093383366573
28.7878787878788,0.000158551528528478,0.349995789343631,-0.000105541650789599
29.3939393939394,0.000156090378827939,0.349996229677305,-0.000105998796364161
30.0,0.000154241699274235,0.349996781316634,-0.00010620014461998
33.0,0.000147987104326806,0.350000000007699,-0.000106731481013236
36.0,0.000145305542354521,0.350001890131902,-0.000107263348386598
39.0,0.000141881898972022,0.350004050445471,-0.000107815894714467
42.0,0.000139441071968532,0.350006491156261,-0.000108127211476524
45.0,0.000137257998480435,0.350008998205631,-0.000108427564439101
48.0,0.000134941084766468,0.350011494704583,-0.000108720743198189
51.0,0.000132551947342161,0.350013988218614,-0.000109060619378374
54.0,0.000130097758393389,0.350016444034876,-0.000109395517017906
57.0,0.000127691500433364,0.350019012193433,-0.000109745089976875
60.0,0.000125396278624613,0.35002183275322,-0.000110094050532149
63.0,0.000122765971799197,0.350023738903567,-0.000110498132186585
66.0,0.000120207961597504,0.350025883822593,-0.000110901542844135
69.0,0.000117726461033764,0.350028334158516,-0.000111304953526865
72.0,0.000115180265527827,0.350030034412492,-0.000111734091892153
75.0,0.000112583556556493,0.350031472891209,-0.000112170860784359
78.0,0.000109984042630041,0.350033261328918,-0.000112614706168242
81.0,0.000107465275859856,0.350034821611351,-0.000113049709797674
84.0,0.000105102130635501,0.35003537941469,-0.000113444905113265
87.0,0.000102619454335093,0.350036338494801,-0.000113851866274875
90.0,9.9996206542205e-05,0.350037703820502,-0.000114258827478193
93.0,9.81604783324287e-05,0.350036338639419,-0.000114316913552528
96.0,9.64233051171546e-05,0.350035379459493,-0.000114374956121658
99.0,9.47698036266927e-05,0.350034821556323,-0.000114466579914176
102.0,9.3006665169767e-05,0.350033261127597,-0.000114409045216611
105.0,9.11866736226846e-05,0.35003147268991,-0.000114308528894262
108.0,8.93686455040073e-05,0.350030034211198,-0.000114231833714102
111.0,8.75873014758999e-05,0.350028333976257,-0.000114122920296746
114.0,8.58538727867165e-05,0.350025883971005,-0.000113997582285777
117.0,8.40668872813099e-05,0.350023739382584,-0.000113872244293169
120.0,8.22292804450019e-05,0.350021833616524,-0.000113717785444254
123.0,8.06183297978706e-05,0.350019012767813,-0.000113690887005129
126.0,7.89296804236412e-05,0.350016444212797,-0.000113637532436843
129.0,7.72074793802327e-05,0.350013988000102,-0.000113485126906942
132.0,7.54669462644207e-05,0.35001138739322,-0.000113710749448038
135.0,7.37347649697809e-05,0.350008734554717,-0.000113929974917863
138.0,7.20937181276464e-05,0.350006069122226,-0.000114149200396695
141.0,7.0189566635577e-05,0.35000351680411,-0.000114841047821109
144.0,6.76626029749092e-05,0.350001218636936,-0.00011659875947178
147.0,6.56495219968703e-05,0.350000000001663,-0.000118326293000778
150.0,5.65952405918446e-05,0.349996087686587,-0.000120265817588824
153.0,5.30122349324744e-05,0.349994451065267,-0.000123161236682122
156.0,4.94292292730902e-05,0.349992524561635,-0.000126268687584669
159.0,4.58462236137547e-05,0.349990292687078,-0.000129376138487236
162.0,5.01867958091484e-05,0.349990428200251,-0.000126218866816935
165.0,5.84902455151859e-05,0.349991518311294,-0.00011992865951499
168.0,6.67936952213344e-05,0.3499915449191,-0.000113638285501127
171.0,7.51126145056291e-05,0.349991126500118,-0.000108485163856764
174.0,8.34624736686662e-05,0.349991459408608,-0.000105606270109869
177.0,9.18123329153031e-05,0.34999166550388,-0.000102727376245267
180.0,9.99956900108589e-05,0.349991742771221,-9.99956900108589e-05
