Alpha (deg),Cl,Cd,Cm
-180.0,0.0,0.0253290148278653,0.0
-177.0,0.0859285016296224,0.0264887963195338,0.120000000361047
-174.0,0.171857001970632,0.0295822545099189,0.239999998922534
-171.0,0.257785975776513,0.0345790548652335,0.360000658682385
-168.0,0.343718370293262,0.0448135473403131,0.401518537621734
-165.0,0.429642506378457,0.0735899942969157,0.403796054806101
-162.0,0.515575699559975,0.11046297651388,0.406073812059132
-159.0,0.601494773499376,0.153506528775138,0.414889649778594
-156.0,0.687430254370626,0.20200425542724,0.436785411909175
-153.0,0.773357431312872,0.255038506123634,0.458675668828557
-150.0,0.859285013724831,0.31237726350089,0.477796578445001
-147.0,0.899662983197418,0.373768930764604,0.469240399243684
-144.0,0.848907563285228,0.437316867521388,0.457848023326145
-141.0,0.803732568101703,0.503756142981037,0.446802015249323
-138.0,0.760238709685215,0.571284780254208,0.439117737109882
-135.0,0.717831487371475,0.63956691244903,0.433626764734664
-132.0,0.676052044487069,0.708040256215352,0.42813579229797
-129.0,0.633943753895283,0.775554592314815,0.425780896199185
-126.0,0.590936680621969,0.841737525960438,0.425037729674295
-123.0,0.546876198830003,0.906259354630663,0.425451155112158
-120.0,0.500913629066164,0.967046585149483,0.425984409831889
-117.0,0.453617621957588,1.02438047735885,0.42699871285578
-114.0,0.405154489384632,1.07817907828222,0.428252421778584
-111.0,0.355440339779474,1.12745611265685,0.429506319571593
-108.0,0.304550196014543,1.17008510316125,0.429135153613059
-105.0,0.253177902641315,1.20771292082191,0.428396971321226
-102.0,0.20148877262927,1.24015839364795,0.427258764218565
-99.0,0.149853317839536,1.26497187936921,0.42478897885592
-96.0,0.098912326285826,1.28261573901144,0.420642528885619
-93.0,0.048887835064779,1.29431634909984,0.415972451238124
-90.0,-1.91502996084423e-10,1.29999999997774,0.411302792442988
-87.0,-0.0488878347716651,1.29431634913391,0.401633118355072
-84.0,-0.0989123261487306,1.28261573905307,0.391963763400604
-81.0,-0.149853318244068,1.26497187917481,0.381898037978135
-78.0,-0.201488773033801,1.24015839345356,0.370549335528241
-75.0,-0.253177902433493,1.20771292095746,0.358164024488391
-72.0,-0.304550195775875,1.17008510335741,0.345501964379209
-69.0,-0.355440340103473,1.1274561123357,0.332617464437799
-66.0,-0.405154489021084,1.07817907864257,0.31874818284407
-63.0,-0.453617621891129,1.0243804774359,0.304878901113331
-60.0,-0.500913629214365,0.967046584953482,0.291043105691863
-57.0,-0.546876198342541,0.90625935527535,0.277267803933582
-54.0,-0.590936680705821,0.841737525837025,0.263523404092418
-51.0,-0.633943754226586,0.775554591787649,0.249856921832503
-48.0,-0.676052044702056,0.708040255859284,0.236295690037313
-45.0,-0.717831487008493,0.639566913039949,0.222938874365388
-42.0,-0.764825905846374,0.571284780258881,0.209582204718194
-39.0,-0.812011292348548,0.503756142854045,0.181632858820554
-36.0,-0.859977318360817,0.437316868195362,0.134086782875459
-33.0,-0.912603513348925,0.373768930559703,0.0838754096317567
-30.0,-1.02536666423133,0.284220552840093,0.0546239533719539
-29.3939393939394,-1.05397723314015,0.263631668014096,0.0508208463886256
-28.7878787878788,-1.08247722990458,0.243145961313371,0.0470182267520037
-28.1818181818182,-1.11084924441566,0.222782796336987,0.0432162604024851
-27.5757575757576,-1.11994095343017,0.21022501757782,0.0397453418292768
-26.969696969697,-1.12074980606133,0.200969864850017,0.0364161906420659
-26.3636363636364,-1.12148768405137,0.191732390564808,0.0330872090403876
-25.7575757575758,-1.12215460966601,0.182499277815137,0.0297584368432183
-25.1515151515151,-1.1227506051707,0.17327038687553,0.0264299267941628
-24.5454545454545,-1.12298953350238,0.164046214979689,0.0231017501086858
-23.9393939393939,-1.12316446658656,0.154952978877541,0.0198639604015487
-23.3333333333333,-1.12387557701222,0.146999128485114,0.0174358564266565
-22.7272727272727,-1.12434737008048,0.139060536642332,0.0150075631219973
-22.1212121212121,-1.12447784766558,0.131147379936485,0.0125792969702137
-21.5151515151515,-1.12409745063186,0.123281471545723,0.0101517223412915
-20.9090909090909,-1.12487344936277,0.11538970543899,0.00772798180017369
-20.3030303030303,-1.12580754431781,0.107394075338393,0.00529779079715756
-19.6969696969697,-1.12666559506528,0.100143322151517,0.00348106111104496
-19.0909090909091,-1.12744487743537,0.0936329633426203,0.00229445426155816
-18.4848484848485,-1.12820550671041,0.0871228676586257,0.00111052942915776
-17.8787878787879,-1.12837482109996,0.0807963809295877,5.05378165163075e-05
-17.2727272727273,-1.12622922040516,0.0752037894267561,-0.000511918942187568
-16.6666666666667,-1.12408043453704,0.0696113124609446,-0.00107459323071522
-16.0606060606061,-1.12192903220651,0.0640189335581103,-0.00163744634395626
-15.4545454545455,-1.12043025147823,0.0590640826924944,-0.00156940951586021
-14.8484848484848,-1.11900353605756,0.0541800632457073,-0.00143141658538759
-14.2424242424242,-1.11757627824956,0.0492960441392098,-0.00129355963136105
-13.6363636363636,-1.1130498575166,0.0447633860792074,-0.00184819096322704
-13.030303030303,-1.106456040165,0.0404935725759916,-0.00286877336634508
-12.4242424242424,-1.09986038747109,0.0362122578358591,-0.00379973473292089
-11.8181818181818,-1.07914545768419,0.0323756311915803,-0.00625649460108923
-11.2121212121212,-1.02504306910807,0.0295892713583373,-0.0121794088313491
-10.6060606060606,-0.97097049443936,0.0267936013454489,-0.0181029330458421
-10.0,-0.917068184261665,0.023988362441323,-0.0240459545092805
-9.39393939393939,-0.849062325123216,0.0222713873121613,-0.0295948112840217
-8.78787878787879,-0.781061798977495,0.0205533040750532,-0.0351420565316609
-8.18181818181818,-0.713067000387395,0.0188338821145231,-0.0406895034255712
-7.57575757575758,-0.64233741870349,0.0175289978387257,-0.0457018598926106
-6.96969696969697,-0.569761557237093,0.0164021794702964,-0.0504958818041474
-6.36363636363636,-0.497185538641706,0.0152753217976228,-0.0553071253029605
-5.75757575757576,-0.420162367612616,0.0143627925774744,-0.0603372935714408
-5.15151515151515,-0.336468269519932,0.0137718125471532,-0.0656693742735948
-4.54545454545454,-0.252773521804412,0.0131808281622381,-0.0710013620117844
-3.93939393939394,-0.168876788242453,0.0126229769487982,-0.0762716593789452
-3.33333333333333,-0.0831676834442266,0.0123633677296296,-0.0809893054666013
-2.72727272727273,0.00254413608140964,0.0121037574005422,-0.0856939889781324
-2.12121212121212,0.0882582333262317,0.0118441459703247,-0.0903904622696173
-1.51515151515152,0.172994573821203,0.0117087011260867,-0.0945406229248235
-0.909090909090912,0.257697924751589,0.0116149704184336,-0.0984721039602837
-0.303030303030302,0.341406507145858,0.0115817277210265,-0.102060425327419
0.303030303030302,0.424520559166891,0.0115796672955809,-0.105466003894612
0.909090909090912,0.50705406209198,0.0116087901662927,-0.108688334330749
1.51515151515152,0.588695758854228,0.0116803218898812,-0.111656436952127
2.12121212121212,0.669972824736783,0.0117679794247149,-0.114525903005677
2.72727272727273,0.750438530205855,0.0118902107756353,-0.117179971773797
3.33333333333333,0.830344256209659,0.0120371174839412,-0.11970462679982
3.93939393939394,0.909791946780198,0.0122042089261594,-0.122123378767755
4.54545454545455,0.988244304111321,0.0124130291750668,-0.12434288945114
5.15151515151515,1.06626490679427,0.0126393103364785,-0.126480848808752
5.75757575757576,1.14332525417412,0.0129039378202869,-0.128440595640326
6.36363636363637,1.21947691612551,0.0132079655031722,-0.13024583380432
6.96969696969697,1.29502316766199,0.0135383604709355,-0.131948063844256
7.57575757575757,1.36864566633701,0.0139474611591754,-0.133367413903053
8.18181818181818,1.44144169186301,0.0143867538034482,-0.134666085120322
8.78787878787879,1.5125464634301,0.0148867789312186,-0.135717931945243
9.39393939393939,1.58135058004135,0.0154717217536432,-0.136468349790237
10.0,1.64891719393916,0.0161022870311407,-0.1370563712039
10.6060606060606,1.71188405715627,0.0169178008710017,-0.13709941742072
11.2121212121212,1.77268668307923,0.0178381673483375,-0.13693777671182
11.8181818181818,1.82915985485567,0.0189534877390428,-0.136396017615339
12.4242424242424,1.87927577802555,0.0204120882996679,-0.135438747924492
13.030303030303,1.92589422859975,0.0220618488776299,-0.134272051491204
13.6363636363636,1.95891931105911,0.0245840715222659,-0.132515764870907
14.2424242424242,1.98413414193443,0.0276378963968287,-0.130615477786026
14.8484848484848,1.99847127104052,0.0314562088361984,-0.128494286269797
15.4545454545455,2.0003673755433,0.0366821529055102,-0.126331800968982
16.0606060606061,1.99640757112859,0.0425674288180976,-0.124191323114805
16.6666666666667,1.97616176630422,0.0503449203532965,-0.122383188240378
17.2727272727273,1.95572904411747,0.0581246325098332,-0.120570021089409
17.8787878787879,1.93520569426389,0.0659062144868689,-0.118751473679104
18.4848484848485,1.88895723399904,0.0766465679131682,-0.118194594994312
19.0909090909091,1.83622586971207,0.0881272886120435,-0.117945845172216
19.6969696969697,1.7834324484222,0.0996090481897948,-0.117683105687241
20.3030303030303,1.73745579577392,0.111934352497872,-0.119128697994408
20.9090909090909,1.69831282385853,0.125102889226538,-0.122297895119556
21.5151515151515,1.65913013905543,0.138272201880513,-0.125467429016409
22.1212121212121,1.61990181614298,0.15144251759934,-0.128637337259519
22.7272727272727,1.58062068947256,0.164614161763982,-0.131807663122373
23.3333333333333,1.5412780104424,0.177787617549921,-0.134978456643234
23.9393939393939,1.50186298483623,0.190774587419963,-0.138149775897902
24.5454545454545,1.48289433483101,0.203260205359798,-0.141830085953741
25.1515151515151,1.46599084981627,0.215689920590889,-0.145567034968088
25.7575757575758,1.44859064831393,0.228121922193916,-0.149304122697883
26.3636363636364,1.43102308548759,0.240556549293739,-0.153041362496989
26.969696969697,1.41326657022132,0.252994211570946,-0.156778767659347
27.5757575757576,1.39529436106084,0.265435408617711,-0.160516351513879
28.1818181818182,1.38002464426566,0.27770268341898,-0.164126825222151
28.7878787878788,1.37148991307509,0.289569686065625,-0.167437635222567
29.3939393939394,1.36282669149422,0.301449379722149,-0.170743780268641
30.0,1.35397099678216,0.313336182936141,-0.174044454978545
33.0,1.29967046929788,0.373768930559704,-0.190700265619798
36.0,1.22498014937336,0.437316868195362,-0.208294856129892
39.0,1.1572953805278,0.503756142854045,-0.225558091676943
42.0,1.09107397781016,0.571284780258881,-0.240118935023649
45.0,1.02547355286927,0.639566913039949,-0.252665340500846
48.0,0.965788635288652,0.708040255859284,-0.265211879214501
51.0,0.905633934609408,0.77555459178765,-0.277079875917141
54.0,0.844195258151173,0.841737525837025,-0.288599272090876
57.0,0.781251711917915,0.90625935527535,-0.299863464744672
60.0,0.715590898877664,0.967046584953482,-0.311060545248734
63.0,0.648025174130184,1.0243804774359,-0.322109250564688
66.0,0.578792127172977,1.07817907864257,-0.333075863744307
69.0,0.507771914433532,1.1274561123357,-0.344042476815592
72.0,0.43507170825125,1.17008510335741,-0.354493844861366
75.0,0.361682717762133,1.20771292095746,-0.364828830713439
78.0,0.287841104334002,1.24015839345356,-0.375022134636243
81.0,0.214076168920097,1.26497187917481,-0.384685472006914
84.0,0.141303323069615,1.28261573905307,-0.393689790834858
87.0,0.0698397639595214,1.29431634913391,-0.402496114232726
90.0,2.73575576047623e-10,1.29999999997774,-0.411302792446369
93.0,-0.0488878350647788,1.29431634909984,-0.415972451238124
96.0,-0.0989123262858264,1.28261573901144,-0.420642528885619
99.0,-0.149853317839536,1.26497187936921,-0.42478897885592
102.0,-0.20148877262927,1.24015839364795,-0.427258764218565
105.0,-0.253177902641316,1.20771292082191,-0.428396971321226
108.0,-0.304550196014543,1.17008510316125,-0.429135153613059
111.0,-0.355440339779475,1.12745611265685,-0.429506319571593
114.0,-0.405154489384633,1.07817907828222,-0.428252421778584
117.0,-0.453617621957587,1.02438047735885,-0.42699871285578
120.0,-0.500913629066165,0.967046585149482,-0.425984409831889
123.0,-0.546876198830003,0.906259354630663,-0.425451155112158
126.0,-0.590936680621969,0.841737525960439,-0.425037729674295
129.0,-0.633943753895283,0.775554592314814,-0.425780896199185
132.0,-0.676052044487069,0.708040256215352,-0.42813579229797
135.0,-0.717831487371475,0.63956691244903,-0.433626764734664
138.0,-0.760238709685215,0.571284780254207,-0.439117737109882
141.0,-0.803732568101703,0.503756142981036,-0.446802015249324
144.0,-0.848907563285228,0.437316867521388,-0.457848023326145
147.0,-0.899662983197418,0.373768930764604,-0.469240399243684
150.0,-0.85928501372483,0.312377263500889,-0.477796578445001
153.0,-0.773356512255555,0.255037924598855,-0.45867543471353
156.0,-0.687428010786281,0.202002927315853,-0.436784840303748
159.0,-0.601499509317006,0.153509120528393,-0.414890856525278
162.0,-0.515571007847732,0.11046087782555,-0.426073687832196
165.0,-0.429642506378457,0.0735899942969158,-0.453796054972627
168.0,-0.343714004909182,0.044812281748483,-0.481518422113059
171.0,-0.257785503439907,0.0345790250029335,-0.449999998824567
174.0,-0.171857001970632,0.0295822545099189,-0.299999998653168
177.0,-0.0859285016296224,0.0264887963195338,-0.150000000451309
180.0,0.0,0.0253290148278653,0.0
