Alpha (deg),Cl,Cd,Cm
-180.0,0.0,0.0127312001091097,0.0
-177.0,0.0787460671134957,0.0140716057787611,0.120000000361047
-174.0,0.157492133046089,0.0176474890437778,0.239999998922534
-171.0,0.236238632868437,0.0234256788175926,0.360000658682385
-168.0,0.314988267477526,0.0363615403246094,0.395983355816655
-165.0,0.393730333945742,0.0712836009562448,0.389959154624583
-162.0,0.47248070046227,0.112988074310126,0.383934318433161
-159.0,0.55121812791008,0.161166778170894,0.387491754358524
-156.0,0.629970590897112,0.215583459581977,0.410216500495697
-153.0,0.708715444048779,0.275251017778132,0.432937292023403
-150.0,0.787460668778496,0.339912756302951,0.453507775772638
-147.0,0.829612821751493,0.40928357744206,0.452573142744422
-144.0,0.798543324644881,0.481205323125451,0.449443506251084
-141.0,0.769232917174077,0.556510350339047,0.446328534448274
-138.0,0.739560951715994,0.633142306708571,0.444502210282375
-135.0,0.709098681860006,0.710710818445515,0.445220848139104
-132.0,0.676422852552619,0.78857955751176,0.445846665580974
-129.0,0.641154336845504,0.865440676407777,0.448254059443226
-126.0,0.604872792847417,0.94085817927921,0.451582165316624
-123.0,0.566113638445963,1.01445357611233,0.455568472045263
-120.0,0.523563828944601,1.0838899400156,0.459372973484259
-117.0,0.478489038845849,1.14946849345849,0.462779401654769
-114.0,0.431190869281499,1.21109090293448,0.465986831506465
-111.0,0.381488488620894,1.26764157810033,0.46919405295511
-108.0,0.329291191703915,1.31671681520579,0.469825273319445
-105.0,0.275787860014942,1.36016672223348,0.469874592864246
-102.0,0.221179053819308,1.39778422355528,0.469365749214074
-99.0,0.165628323963394,1.42680102864992,0.467202874140125
-96.0,0.109995809432996,1.44773373922143,0.462957177256066
-93.0,0.0547019651823432,1.46196470762352,0.458060580231405
-90.0,-2.14278052976946e-10,1.46940931757822,0.453163952047279
-87.0,-0.0547019648543699,1.46196470766812,0.442178068534867
-84.0,-0.109995809282565,1.44773373927118,0.431192170380526
-81.0,-0.1656283243986,1.42680102842255,0.419718782467029
-78.0,-0.221179054254513,1.397784223328,0.406685464941366
-75.0,-0.27578785979605,1.36016672239044,0.392413380766625
-72.0,-0.329291191458481,1.31671681543173,0.377778107502456
-69.0,-0.381488488944818,1.26764157773172,0.362819983168718
-66.0,-0.431190868918039,1.21109090334796,0.346432583612984
-63.0,-0.478489038781644,1.14946849354669,0.330045180447897
-60.0,-0.523563829081807,1.08388993979167,0.313601953147766
-57.0,-0.566113637994732,1.01445357684861,0.297047085024564
-54.0,-0.60487279292095,0.940858179138476,0.280441471476512
-51.0,-0.641154337115609,0.865440675807405,0.263939540452787
-48.0,-0.676422852725991,0.788579557106718,0.247584545207584
-45.0,-0.709098681581331,0.710710819117308,0.231515449327609
-42.0,-0.707164317522046,0.633142306713877,0.21544633101659
-39.0,-0.710674307027366,0.556510350195033,0.186570178944674
-36.0,-0.720049418380131,0.481205323888712,0.14029349907308
-33.0,-0.737464712958857,0.409283577210318,0.092062989127447
-30.0,-0.871231560316346,0.302205880060524,0.0603263329240803
-29.3939393939394,-0.909501016787266,0.277287885264862,0.0556116172597357
-28.7878787878788,-0.947931693657341,0.252456585285244,0.0509153688009954
-28.1818181818182,-0.986603574783701,0.22768886630532,0.0462386610830767
-27.5757575757576,-0.999027945726932,0.213565291645531,0.0422735302630617
-26.969696969697,-1.00078645311552,0.203919535287589,0.0385963715865223
-26.3636363636364,-1.0044561951979,0.193985255622479,0.0348859921265557
-25.7575757575758,-1.00886429345778,0.183982030087659,0.0310968735841327
-25.1515151515151,-1.01351928587509,0.173978804552838,0.0273045124958683
-24.5454545454545,-1.01698212223901,0.164318804959092,0.023512151407604
-23.9393939393939,-1.02055822161081,0.155490000418696,0.0201804508773004
-23.3333333333333,-1.02453801965653,0.147397653501471,0.017480566352032
-22.7272727272727,-1.02851831752626,0.13930503641534,0.0147804285359002
-22.1212121212121,-1.03249899957474,0.13121217030572,0.0120800832789906
-21.5151515151515,-1.03647998327832,0.123119074167469,0.00937956599489304
-20.9090909090909,-1.04046120816945,0.115025765111511,0.0066789044702925
-20.3030303030303,-1.04444262892956,0.106932258592745,0.00397812081329366
-19.6969696969697,-1.04577089305661,0.0998392587083635,0.00196754727429583
-19.0909090909091,-1.04444892356063,0.0937469028245594,0.00061676907809605
-18.4848484848485,-1.04313093320941,0.0876545440324138,-0.000740028745381487
-17.8787878787879,-1.04109107232939,0.0817302749212036,-0.00199772547857366
-17.2727272727273,-1.03618422403453,0.0764760526282926,-0.00286840791695632
-16.6666666666667,-1.03133500893039,0.071217668002024,-0.00372951684403635
-16.0606060606061,-1.02654363803861,0.065954681015928,-0.00458225204340812
-15.4545454545455,-1.03268852863647,0.0605143760579389,-0.00467537088280656
-14.8484848484848,-1.04156785172344,0.0549962369320417,-0.004683000385573
-14.2424242424242,-1.04621382625124,0.049391245351721,-0.00468930673030212
-13.6363636363636,-1.04691726641927,0.0442710611649695,-0.00493346061369017
-13.030303030303,-1.04745891812952,0.0397609210172596,-0.00542483654868847
-12.4242424242424,-1.04874893856664,0.0352715324328276,-0.0059757498884963
-11.8181818181818,-1.0395250851134,0.0310348725682424,-0.00825358355239632
-11.2121212121212,-1.00384045391237,0.027387913113499,-0.0140643423308351
-10.6060606060606,-0.970156327352443,0.0237409536587556,-0.0197035953422025
-10.0,-0.93349443388146,0.0200939942040121,-0.0253428483535698
-9.39393939393939,-0.857074213340426,0.017913610525473,-0.0336335402494906
-8.78787878787879,-0.783921763495398,0.015720452784163,-0.041788410200972
-8.18181818181818,-0.7101039568474,0.0133969603614041,-0.0501946206389667
-7.57575757575758,-0.631286195812802,0.0120887840601313,-0.0566491260130347
-6.96969696969697,-0.549578000804961,0.0112751130471719,-0.0616656498630578
-6.36363636363636,-0.468000242875777,0.0104593641876268,-0.0665560774034486
-5.75757575757576,-0.386620209814834,0.00987830261154415,-0.0708440974053954
-5.15151515151515,-0.305548157030159,0.00964251254955198,-0.0742301017057154
-4.54545454545454,-0.224480090289686,0.00939418616965357,-0.0776124926149706
-3.93939393939394,-0.143559332096429,0.00915085153966975,-0.0809143531901379
-3.33333333333333,-0.0639220281148808,0.00904513877510316,-0.0835599516467107
-2.72727272727273,0.0157062425014503,0.00893903756863751,-0.0862601360508536
-2.12121212121212,0.0953031491002535,0.00883253515425595,-0.0891821657696416
-1.51515151515152,0.17414712307529,0.00878844731891615,-0.0917076560787992
-0.909090909090912,0.25324050892863,0.0087671175082865,-0.094122275421538
-0.303030303030302,0.331882170603372,0.00878600180837558,-0.0963743151777884
0.303030303030302,0.409647698678382,0.00882689420443985,-0.098542372237221
0.909090909090912,0.486846666367031,0.00888979009533007,-0.100627811015528
1.51515151515152,0.563846752428755,0.0089891412685732,-0.102589889632846
2.12121212121212,0.640743824826362,0.00910397098071506,-0.10450198043372
2.72727272727273,0.717039299703843,0.00925495798427393,-0.106304286940205
3.33333333333333,0.792885856051015,0.0094295280708231,-0.108027554190771
3.93939393939394,0.868370346536797,0.00962337264329312,-0.109686060387563
4.54545454545455,0.942977292697981,0.00986624362764141,-0.111203184967994
5.15151515151515,1.01716641529312,0.0101345342351737,-0.112658768779958
5.75757575757576,1.09038104780009,0.0104622301030989,-0.113978215889056
6.36363636363637,1.16268874362706,0.0108282047412813,-0.11517759546986
6.96969696969697,1.23439891212667,0.0112200709858016,-0.116296757415958
7.57575757575757,1.30466927371249,0.011659648973869,-0.117216197028992
8.18181818181818,1.37390194524851,0.0121546319322815,-0.118016004738153
8.78787878787879,1.44091125125329,0.0127836311051199,-0.118560729178121
9.39393939393939,1.50605352579279,0.0134705860367534,-0.118873198763912
10.0,1.57019158988612,0.0141887118577853,-0.119060310144343
10.6060606060606,1.63003379917482,0.0150561944589556,-0.118755661378279
11.2121212121212,1.68783859245125,0.0159970997707975,-0.118238186339937
11.8181818181818,1.74185605280116,0.0170732616254431,-0.117326277702799
12.4242424242424,1.78970874625948,0.0184115167492934,-0.115887774985643
13.030303030303,1.83440962036876,0.0199162647755827,-0.114199301992287
13.6363636363636,1.86931533652268,0.0219554555129195,-0.112034718592838
14.2424242424242,1.89212721390835,0.0247113571990634,-0.109374415328919
14.8484848484848,1.89664344993115,0.0287515134777788,-0.106028887550748
15.4545454545455,1.89087491884982,0.0338518612909287,-0.10348854709624
16.0606060606061,1.87740151706059,0.0397066143972164,-0.101323618830828
16.6666666666667,1.82829998357247,0.0491779306056142,-0.10023344328226
17.2727272727273,1.77919845008435,0.0586492468140121,-0.0991067240737895
17.8787878787879,1.73009691659623,0.0681205630224098,-0.0979318913213783
18.4848484848485,1.67358401790418,0.079845462520251,-0.0990977665016595
19.0909090909091,1.61521827830414,0.0921337577209524,-0.10088270605545
19.6969696969697,1.55685253870411,0.104422052921654,-0.10270546196623
20.3030303030303,1.51073961486676,0.117020186021894,-0.105671708325642
20.9090909090909,1.47687950494398,0.129928156974941,-0.109716617307139
21.5151515151515,1.44301939502121,0.142836127927987,-0.113729733812188
22.1212121212121,1.40915928509843,0.155857404037402,-0.117716393380007
22.7272727272727,1.37529917517565,0.169240394673239,-0.121680886256809
23.3333333333333,1.34143906525287,0.182482125670005,-0.125626721259682
23.9393939393939,1.3075789553301,0.195620612220262,-0.129556819865902
24.5454545454545,1.28627461797643,0.208819822699788,-0.133522212467456
25.1515151515151,1.26716618925388,0.221957141665335,-0.137490162734525
25.7575757575758,1.25081031101392,0.234975438302101,-0.141455677873574
26.3636363636364,1.23443513517049,0.247794353981842,-0.145418693011694
26.969696969697,1.21639644687057,0.261336792529225,-0.149379219953747
27.5757575757576,1.20026395774161,0.274855243008982,-0.153337405251222
28.1818181818182,1.18502650125796,0.288975417535068,-0.157381610475142
28.7878787878788,1.17057763323891,0.304750453154042,-0.161630540447682
29.3939393939394,1.15567990062071,0.320141887782003,-0.165879468202683
30.0,1.14070867861587,0.335067984549411,-0.170128393239343
33.0,1.08146500061068,0.409283577210318,-0.190510194908043
36.0,1.05332741246437,0.481205323888711,-0.209778507646108
39.0,1.03419086726614,0.556510350195034,-0.228812221230849
42.0,1.02094813447523,0.633142306713878,-0.245853537145327
45.0,1.01299811654476,0.710710819117307,-0.261409585290216
48.0,0.96631836103713,0.788579557106718,-0.276965561453386
51.0,0.915934767308012,0.865440675807405,-0.291835783154605
54.0,0.864103989887071,0.940858179138476,-0.306353578250403
57.0,0.808733768563903,1.01445357684861,-0.320606823102315
60.0,0.747948327259724,1.08388993979167,-0.33466432392616
63.0,0.683555769688062,1.14946849354669,-0.348291192989368
66.0,0.615986955597199,1.21109090334796,-0.3617027446752
69.0,0.544983555635454,1.26764157773172,-0.375114294690046
72.0,0.470415987797829,1.31671681543173,-0.387498425681486
75.0,0.3939826568515,1.36016672239044,-0.399650477125401
78.0,0.315970077506447,1.397784223328,-0.411571341080104
81.0,0.236611891998,1.42680102842255,-0.422781063108185
84.0,0.157136870403664,1.44773373927118,-0.433095271028156
87.0,0.078145664077671,1.46196470766812,-0.443129618913627
90.0,3.06111363530323e-10,1.46940931757822,-0.453163952051006
93.0,-0.054701965182343,1.46196470762352,-0.458060580231405
96.0,-0.109995809432996,1.44773373922143,-0.462957177256066
99.0,-0.165628323963394,1.42680102864992,-0.467202874140125
102.0,-0.221179053819308,1.39778422355528,-0.469365749214074
105.0,-0.275787860014942,1.36016672223348,-0.469874592864246
108.0,-0.329291191703914,1.31671681520579,-0.469825273319445
111.0,-0.381488488620894,1.26764157810033,-0.46919405295511
114.0,-0.431190869281499,1.21109090293448,-0.465986831506465
117.0,-0.478489038845848,1.14946849345849,-0.46277940165477
120.0,-0.523563828944601,1.0838899400156,-0.459372973484259
123.0,-0.566113638445963,1.01445357611233,-0.455568472045263
126.0,-0.604872792847417,0.94085817927921,-0.451582165316624
129.0,-0.641154336845504,0.865440676407776,-0.448254059443226
132.0,-0.676422852552619,0.78857955751176,-0.445846665580974
135.0,-0.709098681860006,0.710710818445515,-0.445220848139104
138.0,-0.739560951715994,0.63314230670857,-0.444502210282375
141.0,-0.769232917174077,0.556510350339046,-0.446328534448274
144.0,-0.798543324644881,0.481205323125451,-0.449443506251084
147.0,-0.829612821751493,0.40928357744206,-0.452573142744422
150.0,-0.787460668778496,0.339912756302951,-0.453507775772638
153.0,-0.708714601811945,0.275250362736608,-0.432937049016304
156.0,-0.629968534845394,0.215581967326897,-0.410215907226233
159.0,-0.551222467878843,0.16116968211668,-0.387493006745529
162.0,-0.472476400912293,0.112985725910785,-0.40393464750463
165.0,-0.393730333945742,0.071283600956245,-0.439959154791109
168.0,-0.314984266979191,0.0363599061181616,-0.475983662077588
171.0,-0.23623820001264,0.0234256442783311,-0.449999998824567
174.0,-0.157492133046089,0.0176474890437778,-0.299999998653168
177.0,-0.0787460671134957,0.0140716057787611,-0.150000000451309
180.0,0.0,0.0127312001091097,0.0
