Alpha (deg),Cl,Cd,Cm
-180.0,4.65696793097373e-18,0.0240609865278164,0.0
-177.0,0.07105810375169,0.0254116408824495,0.120000000361047
-174.0,0.142116206437769,0.0290144621643757,0.239999998922534
-171.0,0.21317470065303,0.0348348308271552,0.360000658682385
-168.0,0.284236023606405,0.0611937333094366,0.388838299854566
-165.0,0.355290517295043,0.0969749503346446,0.372097875696386
-162.0,0.426352500699876,0.139541164299973,0.355355686962605
-159.0,0.497402808274777,0.189115334484931,0.351655186171582
-156.0,0.568466683472102,0.244903310359984,0.374039017648308
-153.0,0.639523691780822,0.305884578133731,0.396420697754988
-150.0,0.7105810353905,0.371798499477035,0.417133364526293
-147.0,0.752000370211128,0.442354490582822,0.421155095071887
-144.0,0.734142368830413,0.515377209052426,0.423508096016997
-141.0,0.715716605918585,0.591700414731922,0.425957990010159
-138.0,0.695771517711627,0.669257598482258,0.429191380663692
-135.0,0.673975726224847,0.747661739039369,0.433003959525501
-132.0,0.649066342800221,0.826258100275543,0.436816538429996
-129.0,0.620474620547741,0.903672443866208,0.441605976422176
-126.0,0.588934229941146,0.979458478064119,0.446897453448339
-123.0,0.554393541300029,1.05330779080334,0.452532676768378
-120.0,0.515249342516749,1.122820076953,0.457784429932697
-117.0,0.473063498471789,1.18833037327355,0.46219254855848
-114.0,0.428191999008849,1.24974635405049,0.466151700236578
-111.0,0.380408417457444,1.30592905290131,0.470106102825385
-108.0,0.329515278304558,1.3544238137295,0.471115973629161
-105.0,0.276922294511184,1.3971381489198,0.471460741888686
-102.0,0.222869646193329,1.43386390261262,0.471192437056406
-99.0,0.167410865737111,1.46177362359085,0.469182885725694
-96.0,0.111484108150892,1.48140477150436,0.464980653594974
-93.0,0.0555936987465687,1.49417494378174,0.460093208691378
-90.0,-2.17771139856592e-10,1.49999999997718,0.455205763723787
-87.0,-0.0555936984132489,1.49417494381667,0.444663468320497
-84.0,-0.111484107999339,1.48140477155043,0.43412117282695
-81.0,-0.167410866171596,1.4617736233722,0.42304837119173
-78.0,-0.222869646627814,1.43386390239396,0.41027795014709
-75.0,-0.276922294294839,1.39713814907334,0.396159419472121
-72.0,-0.329515278064808,1.3544238139526,0.381627240087489
-69.0,-0.380408417768861,1.30592905253515,0.366705795434961
-66.0,-0.428191998659418,1.24974635446134,0.350061002245392
-63.0,-0.473063498411227,1.18833037336155,0.333416208891396
-60.0,-0.515249342642964,1.12282007672887,0.316627177109883
-57.0,-0.554393540884879,1.05330779154056,0.299549668611906
-54.0,-0.588934230006584,0.979458477922859,0.282341034036499
-51.0,-0.620474620778564,0.903672443262366,0.265213590499297
-48.0,-0.649066342929747,0.826258099866835,0.248207530696687
-45.0,-0.673975726009875,0.747661739717652,0.231437657120914
-42.0,-0.658271517710185,0.669257598487624,0.214638011662629
-39.0,-0.640716605953781,0.591700414586041,0.189162770431785
-36.0,-0.62164236864102,0.515377209826877,0.152062289719517
-33.0,-0.602000370268709,0.442354490347368,0.113530018668255
-30.0,-0.650117603767702,0.351165169221704,0.0825937998121926
-29.3939393939394,-0.665877573871001,0.330906615077077,0.0771111606310691
-28.7878787878788,-0.682107420141995,0.310647567188947,0.0716284071722869
-28.1818181818182,-0.698806857474958,0.290388102593178,0.0661455181564772
-27.5757575757576,-0.739744704179888,0.269001211710652,0.0594138201096723
-26.969696969697,-0.791475636527888,0.247131163300103,0.0521469389983399
-26.3636363636364,-0.843828443393288,0.225262737128617,0.0448800037543813
-25.7575757575758,-0.896804685989662,0.203395254881935,0.0376139725797336
-25.1515151515151,-0.950410706667838,0.181527772635252,0.0303480154248134
-24.5454545454545,-1.00763151534343,0.159686606596546,0.0230923269088408
-23.9393939393939,-1.06158552920455,0.139122028802956,0.0162387024979876
-23.3333333333333,-1.07650108150504,0.130619125157071,0.0132179312376543
-22.7272727272727,-1.09141663098793,0.122116222985002,0.0101971613590634
-22.1212121212121,-1.10633217830513,0.113613322171395,0.00717639261209547
-21.5151515151515,-1.12124772392184,0.105110422612632,0.0041556248035636
-20.9090909090909,-1.13616326817892,0.0966075242153693,0.00113485778188695
-20.3030303030303,-1.15107881133186,0.0881046268952981,-0.00188590857353776
-19.6969696969697,-1.15993414775452,0.0810668975853911,-0.00388547886037654
-19.0909090909091,-1.162729260053,0.0754943357581109,-0.00486385294886355
-18.4848484848485,-1.16552434992028,0.0699217739466961,-0.00584222640122418
-17.8787878787879,-1.16763156189933,0.0644832282073768,-0.0067523623821774
-17.2727272727273,-1.16698714620587,0.0595807594827378,-0.00738955077538031
-16.6666666666667,-1.16634240562303,0.0546783134642989,-0.00802673852219499
-16.0606060606061,-1.16569733896127,0.0497758925524755,-0.00866392552735024
-15.4545454545455,-1.16451445722327,0.0453012284916403,-0.00931393480635776
-14.8484848484848,-1.16326325369417,0.0408744101060714,-0.0099653685932608
-14.2424242424242,-1.16202310290524,0.0364480655146557,-0.0106168022041282
-13.6363636363636,-1.14944788614508,0.032343498679018,-0.0129170772729288
-13.030303030303,-1.12930466915508,0.0284521607218122,-0.0163160993463604
-12.4242424242424,-1.10916145216508,0.0245606063973251,-0.0197147965813198
-11.8181818181818,-1.07601055623541,0.0211358053599573,-0.0239920488819649
-11.2121212121212,-1.01250840617657,0.0188000954432032,-0.0303213516252641
-10.6060606060606,-0.948994877725101,0.0164643855264491,-0.036652284211325
-10.0,-0.885504106058886,0.0141286756096949,-0.042983216797386
-9.39393939393939,-0.808702357284574,0.0131057265427922,-0.0474100392092891
-8.78787878787879,-0.731887427489061,0.0120827076914706,-0.0518391421939212
-8.18181818181818,-0.655076613565781,0.0110606263436889,-0.0562670165508759
-7.57575757575758,-0.578100641522001,0.0103438118291456,-0.0596623179708545
-6.96969696969697,-0.501053493833634,0.00975623419293084,-0.0627695772499444
-6.36363636363636,-0.424007096657255,0.00916866881411783,-0.0658918641448795
-5.75757575757576,-0.34681555476352,0.00859882867597234,-0.0688608951757866
-5.15151515151515,-0.26940532564851,0.00805696402989484,-0.0716722874954128
-4.54545454545454,-0.191995123735171,0.00752771949785807,-0.074483679815039
-3.93939393939394,-0.11474881292197,0.00703981957617573,-0.077197173251514
-3.33333333333333,-0.0389772092265289,0.00692351546206368,-0.0790295766657961
-2.72727272727273,0.0367943564825676,0.00680721351239393,-0.0808616852328819
-2.12121212121212,0.112565853407239,0.00669091380318183,-0.082692818934614
-1.51515151515152,0.187759217861532,0.00667374670362025,-0.0842870338805291
-0.909090909090912,0.262769321807381,0.00668540168373637,-0.0858139302517602
-0.303030303030302,0.337560227961757,0.00671994571053814,-0.0872949163177047
0.303030303030302,0.412183933196869,0.00677000184646877,-0.0887465437699243
0.909090909090912,0.486660467701779,0.00683557011062127,-0.0901688028891834
1.51515151515152,0.560756616136582,0.00693343924465758,-0.0915399083775953
2.12121212121212,0.634614682647455,0.00704369992010329,-0.0928886427097799
2.72727272727273,0.708111035779321,0.00718072620460835,-0.0941839835191773
3.33333333333333,0.781204771575212,0.00734680458833476,-0.0954340379281244
3.93939393939394,0.853969062898123,0.00753665302614186,-0.09664704031172
4.54545454545455,0.925784505358359,0.00779805776399293,-0.0977619894147488
5.15151515151515,0.996967260198044,0.00811417899186139,-0.0988177793774971
5.75757575757576,1.06656827056124,0.00857060125540952,-0.0997287688959221
6.36363636363637,1.13495750071834,0.00910013196215123,-0.100522680515793
6.96969696969697,1.20253885492316,0.00967839931327229,-0.10123854124899
7.57575757575757,1.26726685106203,0.0104380125882377,-0.101677480813927
8.18181818181818,1.33132906891608,0.0112135080777509,-0.102053168482151
8.78787878787879,1.39418809615207,0.0120037365743666,-0.102315279082438
9.39393939393939,1.45543873174836,0.0128350170546926,-0.102427392460632
10.0,1.51582330767512,0.013688403291782,-0.102458739890548
10.6060606060606,1.57273640918939,0.0146576835558564,-0.102209300266381
11.2121212121212,1.6280850098283,0.0156876348971933,-0.101857262078807
11.8181818181818,1.68052810436238,0.0168286567442633,-0.101314679456202
12.4242424242424,1.72744980014635,0.0182580014916751,-0.100497688615026
13.030303030303,1.77131024541057,0.019843586916765,-0.0995429992367373
13.6363636363636,1.80196642089593,0.0222120728799774,-0.0982064209079832
14.2424242424242,1.82100089555971,0.0253622940447389,-0.0966612760297172
14.8484848484848,1.82261438215393,0.0296782074862771,-0.0948033917656432
15.4545454545455,1.79782416004457,0.0361663576924568,-0.0931184151992654
16.0606060606061,1.76211010926188,0.043687631047194,-0.0916767687160309
16.6666666666667,1.70721085780275,0.0539903008528055,-0.091906913007109
17.2727272727273,1.65231160634361,0.0642929706584172,-0.0921373005090528
17.8787878787879,1.59741235488448,0.0745956404640287,-0.092367997796176
18.4848484848485,1.55461792691893,0.0851062211174525,-0.093946491754331
19.0909090909091,1.51484970418489,0.0956687794718044,-0.095851184744656
19.6969696969697,1.47508148145086,0.106231337826156,-0.0977559293039401
20.3030303030303,1.44122245223487,0.117022549862532,-0.100147894510596
20.9090909090909,1.41327261564562,0.12807103277134,-0.103027199118811
21.5151515151515,1.38532277905638,0.139169073867136,-0.105928238388335
22.1212121212121,1.35737294246713,0.150232572370003,-0.108852583132945
22.7272727272727,1.32933892118365,0.161153568246893,-0.111777053911519
23.3333333333333,1.30099939528793,0.172116848160268,-0.114701632399966
23.9393939393939,1.2726598693922,0.183135456344401,-0.117626303662189
24.5454545454545,1.24299219239985,0.196805850305394,-0.121744633485991
25.1515151515151,1.21455020435046,0.210771261417057,-0.125995623626395
25.7575757575758,1.19048654469755,0.224737321814729,-0.130246657784029
26.3636363636364,1.16680960928981,0.238704469867693,-0.13449774250944
26.969696969697,1.14368918704468,0.252669524749678,-0.138748885720797
27.5757575757576,1.12107866417998,0.266633972521525,-0.143000097080471
28.1818181818182,1.09591222746664,0.282844901002529,-0.147645655476952
28.7878787878788,1.06343265871161,0.30429761884694,-0.153211201118116
29.3939393939394,1.03178594301375,0.325660765538577,-0.158776746845618
30.0,1.0008782881184,0.347209758691859,-0.16434229271908
33.0,0.924286243241014,0.442354490347369,-0.189109126019419
36.0,0.936274812344315,0.515377209826877,-0.208309659387191
39.0,0.947452294219687,0.591700414586042,-0.227320694948977
42.0,0.956459311014549,0.669257598487624,-0.244787723360595
45.0,0.962822465728393,0.747661739717652,-0.261103850685779
48.0,0.927237632756781,0.826258099866835,-0.277396296274091
51.0,0.886392315397948,0.903672443262367,-0.292961328559378
54.0,0.84133461429512,0.979458477922859,-0.308156719033934
57.0,0.791990772692685,1.05330779154056,-0.323070653130316
60.0,0.736070489489949,1.12282007672887,-0.337699677679763
63.0,0.675804997730324,1.18833037336155,-0.351701901788146
66.0,0.61170285522774,1.24974635446134,-0.365390725614272
69.0,0.543440596812658,1.30592905253515,-0.379079549305171
72.0,0.470736111521154,1.3544238139526,-0.391422374879342
75.0,0.395603277564055,1.39713814907334,-0.403461170063478
78.0,0.318385209468305,1.43386390239396,-0.415215622960037
81.0,0.239158380245137,1.4617736233722,-0.426149547782231
84.0,0.159263011427627,1.48140477155043,-0.436050215138729
87.0,0.0794195691617838,1.49417494381667,-0.445627989474147
90.0,3.11101487824349e-10,1.49999999997718,-0.455205763727565
93.0,-0.0555936987465685,1.49417494378174,-0.460093208691378
96.0,-0.111484108150892,1.48140477150436,-0.464980653594974
99.0,-0.167410865737111,1.46177362359085,-0.469182885725694
102.0,-0.222869646193328,1.43386390261262,-0.471192437056406
105.0,-0.276922294511184,1.3971381489198,-0.471460741888686
108.0,-0.329515278304558,1.3544238137295,-0.471115973629161
111.0,-0.380408417457444,1.30592905290131,-0.470106102825385
114.0,-0.428191999008849,1.24974635405048,-0.466151700236578
117.0,-0.473063498471789,1.18833037327355,-0.46219254855848
120.0,-0.515249342516749,1.122820076953,-0.457784429932696
123.0,-0.554393541300029,1.05330779080334,-0.452532676768378
126.0,-0.588934229941146,0.97945847806412,-0.446897453448339
129.0,-0.620474620547741,0.903672443866207,-0.441605976422175
132.0,-0.649066342800221,0.826258100275542,-0.436816538429996
135.0,-0.673975726224847,0.747661739039369,-0.433003959525501
138.0,-0.695771517711627,0.669257598482257,-0.429191380663692
141.0,-0.715716605918585,0.591700414731921,-0.425957990010159
144.0,-0.734142368830413,0.515377209052426,-0.423508096016997
147.0,-0.752000370211128,0.442354490582822,-0.421155095071887
150.0,-0.7105810353905,0.371798499477034,-0.417133364526293
153.0,-0.639522931771408,0.305883909543376,-0.396420458365624
156.0,-0.568464828152317,0.244901782986875,-0.374038433256083
159.0,-0.497406724533226,0.189118316854655,-0.351656419721626
162.0,-0.426348620914135,0.13953874325534,-0.375356601171577
165.0,-0.355290517295043,0.0969749503346448,-0.422097875862912
168.0,-0.284232413675952,0.0611920384940785,-0.468839150554248
171.0,-0.21317431005686,0.0348347960403124,-0.449999998824567
174.0,-0.142116206437769,0.0290144621643757,-0.299999998653168
177.0,-0.07105810375169,0.0254116408824495,-0.150000000451309
180.0,4.65696793097373e-18,0.0240609865278164,0.0
