Alpha (deg),Cl,Cd,Cm
-180.0,0.0,0.0412273098810148,0.0
-177.0,0.0973668602854118,0.0423163613253115,0.119259846233562
-174.0,0.194806303180404,0.0452190006099516,0.23855578724815
-171.0,0.292246115333351,0.0498995478390606,0.357852299124799
-168.0,0.389674183098286,0.057442216611876,0.401653926477899
-165.0,0.487085827890259,0.0777158348507211,0.407692089999572
-162.0,0.584507070374648,0.113216928956699,0.413713618668242
-159.0,0.680159947566904,0.154802448435501,0.424995495384328
-156.0,0.771758317913905,0.203338722243542,0.446810551737553
-153.0,0.861802038404726,0.256213029045423,0.468599382551405
-150.0,0.947782349433387,0.313209751571286,0.487347417403261
-147.0,0.982584866744045,0.37458270786254,0.475377754394748
-144.0,0.920477448790304,0.438225030238742,0.460029442540379
-141.0,0.86579109808984,0.504527456225199,0.44475674960813
-138.0,0.813955729316716,0.571952462744177,0.433530833893512
-135.0,0.764244520464503,0.640136178104683,0.425221940625575
-132.0,0.715848953622723,0.708494106617188,0.416922037915933
-129.0,0.667557926240643,0.775882033967336,0.412601867319781
-126.0,0.618970296949935,0.841912359726706,0.410451513728005
-123.0,0.569898371855787,0.906320408055417,0.409767103625109
-120.0,0.519704533021517,0.967081350217848,0.40949884854938
-117.0,0.468599758874184,1.02421057558643,0.410212019108944
-114.0,0.416764277572059,1.07788970959575,0.411380947134709
-111.0,0.364155795028641,1.12715376569016,0.412549422565025
-108.0,0.310906144698066,1.16966321756079,0.412509803319343
-105.0,0.257519503322069,1.20715920029274,0.4121868031584
-102.0,0.204161203452833,1.23959337882192,0.411535535725342
-99.0,0.151328866210174,1.26441170467595,0.409639559875021
-96.0,0.0996063530773062,1.28191388509559,0.406142382115335
-93.0,0.0490917496217976,1.29360716985121,0.402174098116719
-90.0,-1.30861165430589e-07,1.29941208408868,0.398206148646173
-87.0,-0.0490918644433644,1.29360714042389,0.389321991311682
-84.0,-0.0996064203096772,1.28191387583421,0.380439408204861
-81.0,-0.151328880655164,1.26441171586375,0.371191673464572
-78.0,-0.204161194760924,1.23959342124298,0.360697833886276
-75.0,-0.257519494255801,1.20715924396291,0.349236497577303
-72.0,-0.310906135844386,1.1696632613927,0.337532911810703
-69.0,-0.364155554800461,1.12715380510933,0.325637896967387
-66.0,-0.416763330981382,1.07788967671362,0.312915488853957
-63.0,-0.468598108586064,1.02421046729881,0.300195567738856
-60.0,-0.519702185178367,0.967081155677601,0.287561324007255
-57.0,-0.569896715734676,0.906320275010063,0.274844082085588
-54.0,-0.61896935056262,0.841912317383952,0.262170523666037
-51.0,-0.667557687932946,0.775882086060134,0.249584608479552
-48.0,-0.7158489494631,0.708494197298681,0.237179175564868
-45.0,-0.764244514740314,0.640136273085005,0.225034921714432
-42.0,-0.851455724773377,0.571952562372475,0.212890091631118
-39.0,-0.940791078079958,0.504527556164924,0.183252753762357
-36.0,-1.0329774220143,0.438225142312384,0.128684401867529
-33.0,-1.13258484223893,0.374582855088429,0.0719605350711567
-30.0,-1.23915542262752,0.280359902906234,0.0439862213536636
-29.3939393939394,-1.25845233257295,0.257769451544152,0.040490234399358
-28.7878787878788,-1.27868000390406,0.23560999060528,0.0369942474450523
-28.1818181818182,-1.29932191469677,0.213470483473829,0.0334982604907467
-27.5757575757576,-1.3048194199133,0.20141796156992,0.0303713303339741
-26.969696969697,-1.3041027267574,0.193689298157669,0.0274025673447015
-26.3636363636364,-1.30376266044493,0.186550980316207,0.0244338043554289
-25.7575757575758,-1.30376989634248,0.17938296319813,0.0214650413661563
-25.1515151515151,-1.30409784615801,0.172166984750973,0.0184962783768837
-24.5454545454545,-1.29904050300814,0.164906860035374,0.0155275153876111
-23.9393939393939,-1.29221205879206,0.15764654995713,0.01261599193211
-23.3333333333333,-1.28427422938732,0.150735087452259,0.0102196245395588
-22.7272727272727,-1.2765968453914,0.143826103308239,0.0078232571470077
-22.1212121212121,-1.26919584294255,0.136919469343381,0.00542688975445655
-21.5151515151515,-1.26003009533915,0.130015061171457,0.00292467039896771
-20.9090909090909,-1.24973700076984,0.123112757267617,0.000263992742385522
-20.3030303030303,-1.23944390620053,0.116212437944922,-0.00236556482866149
-19.6969696969697,-1.21616203198303,0.110239654679458,-0.00477563602503936
-19.0909090909091,-1.19078120555374,0.105309816368935,-0.0061412371879414
-18.4848484848485,-1.16610337224094,0.100277181752807,-0.00751959458276775
-17.8787878787879,-1.14047001073357,0.0953360121752503,-0.00882586463402968
-17.2727272727273,-1.11367198411297,0.0903935522141856,-0.00992894608414891
-16.6666666666667,-1.08688934136456,0.0854537394130551,-0.0110162741546376
-16.0606060606061,-1.05970590336614,0.0805675134506522,-0.0120871831563388
-15.4545454545455,-1.03498993896225,0.0759267509819986,-0.0126432285077965
-14.8484848484848,-1.01039847832712,0.071335108961044,-0.0131418494250598
-14.2424242424242,-0.985572500955447,0.0667713865895188,-0.0136160835535987
-13.6363636363636,-0.96188844593708,0.0624110777107423,-0.0137888719154527
-13.030303030303,-0.939085379623982,0.0581775294614192,-0.0136754442789276
-12.4242424242424,-0.915855777987574,0.0539872337848536,-0.0136148443609846
-11.8181818181818,-0.892536165815682,0.0499250883977478,-0.0134481900527413
-11.2121212121212,-0.867557474992956,0.0462399825277091,-0.0130367027066449
-10.6060606060606,-0.844610117112163,0.042523503945575,-0.01226024544271
-10.0,-0.822122074822642,0.0388221485488441,-0.0111196989553263
-9.39393939393939,-0.767662545278972,0.0359180359314001,-0.0161485136734584
-8.78787878787879,-0.711400737834147,0.0330046579664856,-0.0212607170635109
-8.18181818181818,-0.654210487739519,0.0300863146916155,-0.0264205846800974
-7.57575757575758,-0.583576530889608,0.0279656255863789,-0.0329028733285439
-6.96969696969697,-0.506458356451263,0.0261815840315962,-0.0399685522085417
-6.36363636363636,-0.429061534457624,0.0243949804610691,-0.0470463158568126
-5.75757575757576,-0.350743651233384,0.0228685450952194,-0.0537414075194262
-5.15151515151515,-0.270436906022616,0.0217177767108338,-0.0599448784057753
-4.54545454545454,-0.190345614251839,0.0205673891141476,-0.0661177148903357
-3.93939393939394,-0.109699224532845,0.0194819264534872,-0.0722541452838158
-3.33333333333333,-0.0223119708847107,0.0189796675811908,-0.0783402334860086
-2.72727272727273,0.0642233335575592,0.0184827326656427,-0.0842922263623816
-2.12121212121212,0.150350122470765,0.0179850797563611,-0.0901336468013745
-1.51515151515152,0.236757602981541,0.0177210743861124,-0.0960753728558772
-0.909090909090912,0.325008630791938,0.0175409714363074,-0.101805556477036
-0.303030303030302,0.414114019381472,0.0174583543402357,-0.107013449974293
0.303030303030302,0.502704678659186,0.01742246732488,-0.111980480846076
0.909090909090912,0.590782587463278,0.0174294801090211,-0.116705061863737
1.51515151515152,0.677581114054847,0.0175168981743859,-0.120987688539365
2.12121212121212,0.7638170985215,0.0176322035573744,-0.125097412835909
2.72727272727273,0.848844908912982,0.0178059615158576,-0.128820415146511
3.33333333333333,0.933013047494456,0.0180217158128803,-0.13231842030497
3.93939393939394,1.01648499333747,0.0182651504565586,-0.135623330462514
4.54545454545455,1.09839558922617,0.0185842788289126,-0.138561147442034
5.15151515151515,1.17964943094038,0.018933705952044,-0.141344771160258
5.75757575757576,1.25944629036112,0.0193453080005093,-0.14380980671063
6.36363636363637,1.33779471340167,0.0198267374513215,-0.146003792845178
6.96969696969697,1.41518343928605,0.0203464058357158,-0.14801560666114
7.57575757575757,1.48950833235711,0.0210234526152893,-0.14950726285073
8.18181818181818,1.56238647394296,0.0217825172490315,-0.150782881394824
8.78787878787879,1.63240361423594,0.0227023423360298,-0.151654540790333
9.39393939393939,1.69873579149028,0.0238899628184897,-0.152142763203665
10.0,1.76297925816913,0.0252157817234823,-0.152411971463109
10.6060606060606,1.81828871866273,0.0273722675400361,-0.152061377875035
11.2121212121212,1.8681947962525,0.0301123354146873,-0.151469797637631
11.8181818181818,1.89994594076231,0.0339101044497957,-0.150555002634016
12.4242424242424,1.92310506231306,0.0389283338751597,-0.149584387548963
13.030303030303,1.9441378915354,0.0444024761304637,-0.148541736223703
13.6363636363636,1.95216810425251,0.0510066202225329,-0.146083454049647
14.2424242424242,1.96456205029663,0.0573099610055394,-0.144096942700926
14.8484848484848,1.9824426652493,0.0632280094272604,-0.142843771364718
15.4545454545455,1.99334162799307,0.0698123101531284,-0.141336161186496
16.0606060606061,1.99907091039751,0.0769259773932753,-0.139780014558561
16.6666666666667,1.98628744470007,0.0863598671436619,-0.138606038667495
17.2727272727273,1.97509917988815,0.0956252490923398,-0.137446383777992
17.8787878787879,1.96093325811641,0.105034096987718,-0.136287307584783
18.4848484848485,1.94174627361261,0.115551452704961,-0.136909500315949
19.0909090909091,1.90875160681424,0.126226410147217,-0.137991419979594
19.6969696969697,1.8673086464002,0.13689708295834,-0.139087253067646
20.3030303030303,1.83690634537874,0.147319756711898,-0.140851286057482
20.9090909090909,1.81762033086729,0.157467592220173,-0.143261553063925
21.5151515151515,1.79850292578318,0.167504151872843,-0.145687225035779
22.1212121212121,1.77963338017938,0.177345991909894,-0.148130456192222
22.7272727272727,1.76093150363918,0.187399522170157,-0.150588672770882
23.3333333333333,1.74227587169356,0.197959249546312,-0.153052080063112
23.9393939393939,1.72362641163753,0.208516726600687,-0.155530664484395
24.5454545454545,1.71882323354155,0.219283720296637,-0.158937176308637
25.1515151515151,1.71337281292471,0.230147059308886,-0.16248131734763
25.7575757575758,1.70214373973402,0.241037616646903,-0.16603756809724
26.3636363636364,1.69090550020562,0.251933742693287,-0.169590753555066
26.969696969697,1.67967330222327,0.26282612033895,-0.173140828963626
27.5757575757576,1.66844503356095,0.273716994945825,-0.176686601915585
28.1818181818182,1.6553355547589,0.28461914610089,-0.180176718306245
28.7878787878788,1.6446789499547,0.295547522443476,-0.183544379878423
29.3939393939394,1.63785312800742,0.30648147228815,-0.186910661331872
30.0,1.62798870261369,0.317455656699784,-0.190212233844076
33.0,1.55344526378825,0.374921697393128,-0.206478480218039
36.0,1.42726632393964,0.438433960716617,-0.222818504071718
39.0,1.31168280316762,0.50467886430336,-0.238811823444024
42.0,1.20019723263455,0.572064578494853,-0.251880316890276
45.0,1.09171905470243,0.640203084564282,-0.262809512852336
48.0,1.02261913358163,0.70852052582154,-0.273736885407949
51.0,0.953654213902806,0.775882086060134,-0.28409539576501
54.0,0.884243631915315,0.841912317383952,-0.294154422228382
57.0,0.814141198516148,0.906320275010063,-0.304001885996194
60.0,0.742436036404688,0.967081155677601,-0.3138581571625
63.0,0.669429124727955,1.02421046729881,-0.323721959610993
66.0,0.595378336905874,1.07788967671362,-0.333278631917684
69.0,0.520223258616971,1.12715380510933,-0.342864669879746
72.0,0.444152364306244,1.1696632613927,-0.352244154955567
75.0,0.367885843469443,1.20715924396291,-0.361588618259449
78.0,0.29165981117278,1.23959342124298,-0.370852209576855
81.0,0.216185035960342,1.26441171586375,-0.37969859151194
84.0,0.142295471318847,1.28191387583421,-0.388004232501377
87.0,0.0701315061456443,1.29360714042389,-0.396155116005883
90.0,9.74526567536753e-08,1.29941208408868,-0.404315370056845
93.0,-0.0490917742128862,1.29360716985121,-0.40843129249433
96.0,-0.0996063910364582,1.28191388509559,-0.412547495320425
99.0,-0.15132891775929,1.26441170467595,-0.416192845737171
102.0,-0.204161258288702,1.23959337882192,-0.418225453659064
105.0,-0.257519558442613,1.20715920029274,-0.419007930451206
108.0,-0.310906200110655,1.16966321756079,-0.419459924209238
111.0,-0.364155593469793,1.12715376569016,-0.419620467834908
114.0,-0.416763299479085,1.07788970959575,-0.418544304369011
117.0,-0.468598005911894,1.02421057558643,-0.417468435115696
120.0,-0.519702015354184,0.967081350217847,-0.416830051202546
123.0,-0.569896619069431,0.906320408055417,-0.417143558912787
126.0,-0.618969320388796,0.841912359726706,-0.417859771242741
129.0,-0.667557724402138,0.775882033967335,-0.420026941769144
132.0,-0.715849008100609,0.708494106617187,-0.424361384015293
135.0,-0.764244573878768,0.640136178104683,-0.432654939709167
138.0,-0.813955783637667,0.571952462744177,-0.440981189093082
141.0,-0.865791150798853,0.504527456225199,-0.452232302166507
144.0,-0.920477494084441,0.438225030238742,-0.467501627716625
147.0,-0.982584913814413,0.37458270786254,-0.482892928777537
150.0,-0.947782349433387,0.313209751571285,-0.494849780833835
153.0,-0.86180111311574,0.256212471137037,-0.477011595249041
156.0,-0.771755981316838,0.203337447828964,-0.455436533360794
159.0,-0.680164951208121,0.154804936674525,-0.433792828944306
162.0,-0.584501139167763,0.113215060392961,-0.4403842793413
165.0,-0.487083429119909,0.0777158348507212,-0.461045560545227
168.0,-0.389665719039731,0.0574416983142709,-0.482783952128936
171.0,-0.292241297008245,0.0498995199006948,-0.447313487183701
174.0,-0.194803424922768,0.0452190006099516,-0.298193895729185
177.0,-0.0973654213791312,0.0423163613253115,-0.149074213348727
180.0,0.0,0.0412273098810148,0.0
