Alpha (deg),Cl,Cd,Cm
-180.0,0.0,0.0371823486494224,0.0
-177.0,0.0942331910297031,0.0383265955678298,0.1199999329391
-174.0,0.188466534009064,0.0413786079922686,0.239999867409092
-171.0,0.282700394559594,0.0463084560558918,0.360000463068775
-168.0,0.376937973890306,0.0540031436225779,0.404382734091109
-165.0,0.471166482041057,0.0752288152141806,0.410956324231044
-162.0,0.565404921251337,0.112207889640194,0.417530605600957
-159.0,0.659623911630977,0.155277612904524,0.429538145857158
-156.0,0.753846205755959,0.203762593106748,0.452419640570978
-153.0,0.848040949207716,0.256766260489533,0.475298921905582
-150.0,0.942187646547978,0.314064018560735,0.495037076164544
-147.0,0.984192432194509,0.375406527145853,0.483363096714775
-144.0,0.921947173444827,0.438900352722281,0.468543684663928
-141.0,0.867313614221312,0.505278775734148,0.454167150883945
-138.0,0.815415077638357,0.572742319930925,0.44343580744851
-135.0,0.765599987903039,0.640955427212404,0.435421549254455
-132.0,0.717134794997466,0.709355096249268,0.42740739826573
-129.0,0.6687769245142,0.776791506298022,0.423291380870281
-126.0,0.620114750078062,0.842893437634247,0.421178760747443
-123.0,0.570955603262396,0.907331339198415,0.420533964925046
-120.0,0.520645176169571,0.968030646259131,0.42028176899674
-117.0,0.469469754790227,1.02527408882523,0.420893281580856
-114.0,0.417544522653215,1.0789800652577,0.42193663234878
-111.0,0.364825998746516,1.12816217695146,0.422979984002851
-108.0,0.311470782006911,1.17069378931869,0.422727612125512
-105.0,0.257985598489592,1.2082228116661,0.422182562697254
-102.0,0.204529497568222,1.24056821320277,0.421284810114696
-99.0,0.151591234543805,1.26528021276816,0.419123255322495
-96.0,0.0997487478413702,1.28282171746833,0.415370235787049
-93.0,0.0491456189560524,1.29441948948082,0.411119898095822
-90.0,-2.04670398245845e-10,1.29999994774573,0.406869566207745
-87.0,-0.0491456186719347,1.29441948951163,0.397720052471243
-84.0,-0.0997487477085259,1.28282171750885,0.388570560811156
-81.0,-0.151591234960156,1.26528021257558,0.379037752607434
-78.0,-0.204529497982493,1.24056821301301,0.368278266648752
-75.0,-0.257985598273914,1.20822281180517,0.356544667641004
-72.0,-0.311470781756557,1.17069378951834,0.344554508947778
-69.0,-0.364825999068641,1.12816217663452,0.332370259367806
-66.0,-0.417544522182221,1.07898006561435,0.319326632368338
-63.0,-0.469469754569378,1.02527408889235,0.306283048494645
-60.0,-0.520645176119214,0.968030646045831,0.293316760199651
-57.0,-0.570955602578997,0.907331339830045,0.280501545672714
-54.0,-0.62011475008622,0.842893437507159,0.267756190735403
-51.0,-0.668776924871572,0.776791505776259,0.255103276796362
-48.0,-0.717134795249446,0.709355095901875,0.242573394816251
-45.0,-0.765599987484657,0.640955427811305,0.230282897796446
-42.0,-0.852915077634868,0.57274231994472,0.217992400583028
-39.0,-0.942313614323309,0.50527877561648,0.187469430082845
-36.0,-1.03444717278262,0.438900353405982,0.132468962256911
-33.0,-1.13419243239329,0.375406526954937,0.0744772376297385
-30.0,-1.24643682374235,0.279594128305175,0.0436441816867264
-29.3939393939394,-1.27034240989513,0.256967071082309,0.0401502572484372
-28.7878787878788,-1.294259198449,0.234344872775448,0.0366563328101479
-28.1818181818182,-1.31818101839492,0.211722796111045,0.0331624083718587
-27.5757575757576,-1.32442303101209,0.199570245330345,0.0300529098294258
-26.969696969697,-1.32309134006267,0.191904633406278,0.0271081652096077
-26.3636363636364,-1.32176424528436,0.184246034011009,0.0241634205897897
-25.7575757575758,-1.32044140365408,0.176587050953064,0.0212186759699716
-25.1515151515151,-1.31912250543237,0.168927468434152,0.0182739313501536
-24.5454545454545,-1.31212545203784,0.161267333887655,0.0153291867303355
-23.9393939393939,-1.30304192526289,0.153695870777183,0.012444065342485
-23.3333333333333,-1.29219812933441,0.14692681744275,0.0100955533121348
-22.7272727272727,-1.28135765000349,0.140157762629769,0.00774704128178463
-22.1212121212121,-1.27052069685639,0.133388706134425,0.00539852925143446
-21.5151515151515,-1.25242470690164,0.126619647723786,0.00304866858508
-20.9090909090909,-1.23038676534524,0.119850587129805,0.000697088325921849
-20.3030303030303,-1.20834882378885,0.113081524041835,-0.0016542061857809
-19.6969696969697,-1.1856789438769,0.107094519164191,-0.00352937512395963
-19.0909090909091,-1.16237709172327,0.101889935262085,-0.00492053092511831
-18.4848484848485,-1.1390753070874,0.096684925088564,-0.00631180730135777
-17.8787878787879,-1.11537565762097,0.0915204164774147,-0.00764627381672162
-17.2727272727273,-1.09008480372478,0.0865165995638757,-0.00875430462588779
-16.6666666666667,-1.06479395130611,0.0815127937075429,-0.00986218342874742
-16.0606060606061,-1.03950306039375,0.0765092096677158,-0.0109699020595496
-15.4545454545455,-1.01650113616092,0.0718003814187208,-0.0114715613496178
-14.8484848484848,-0.993753527270564,0.0671243934156425,-0.0119058783918414
-14.2424242424242,-0.971005895856449,0.0624485178503358,-0.0123399618239099
-13.6363636363636,-0.94941003336598,0.0580093309835005,-0.0123823568934726
-13.030303030303,-0.928582028406113,0.053727901571917,-0.0121628088988895
-12.4242424242424,-0.907753982480399,0.0494466353284088,-0.0119437535780941
-11.8181818181818,-0.887164880349705,0.0453583329725682,-0.0117034049570008
-11.2121212121212,-0.867124426460854,0.0417205617491961,-0.0114131927273261
-10.6060606060606,-0.847107146079249,0.0380826521743572,-0.011118935333844
-10.0,-0.827095101416556,0.0344447614734121,-0.010820677822905
-9.39393939393939,-0.773065919836394,0.0317365984686671,-0.0159337153463369
-8.78787878787879,-0.719017082630912,0.0290282822938387,-0.0210467607283957
-8.18181818181818,-0.664959997354283,0.0263198118061791,-0.02615981054417
-7.57575757575758,-0.595149724254541,0.0243306343882601,-0.0326518868840674
-6.96969696969697,-0.518579685611426,0.0226497262532872,-0.0397349761815882
-6.36363636363636,-0.442007254618211,0.020968772896031,-0.0468180666032313
-5.75757575757576,-0.363912438634128,0.0195466238046902,-0.0535422699734542
-5.15151515151515,-0.28352855560956,0.0185126937748291,-0.0597281504048137
-4.54545454545454,-0.20314733669054,0.0174787278049902,-0.0659140279865682
-3.93939393939394,-0.121931717045454,0.016503683371961,-0.0720966782395698
-3.33333333333333,-0.0331831725541821,0.0160592493111183,-0.0782503083269225
-2.72727272727273,0.0555596571121007,0.0156148097102782,-0.0844027093685063
-2.12121212121212,0.144297486363174,0.015170361328628,-0.0905532395923199
-1.51515151515152,0.234384562504332,0.0149360620505817,-0.0963451634251637
-0.909090909090912,0.324740374609906,0.0147704835679255,-0.101980939039756
-0.303030303030302,0.414607991667878,0.0146965923835319,-0.107249297051287
0.303030303030302,0.503890185514493,0.0146640751524135,-0.112271352520669
0.909090909090912,0.592586956479866,0.0146729306792518,-0.117047105309323
1.51515151515152,0.679922426290664,0.014751528253306,-0.121372359115606
2.12121212121212,0.766697459170248,0.0148556252587682,-0.125521446517215
2.72727272727273,0.852191676263084,0.0150124917425101,-0.129283867061292
3.33333333333333,0.936794750343432,0.0152060074676168,-0.132812621859804
3.93939393939394,1.02066870796854,0.0154295059818492,-0.136150194736584
4.54545454545455,1.10291027948083,0.0157175797051231,-0.139110313850989
5.15151515151515,1.18446359112676,0.0160322886255623,-0.141920311418713
5.75757575757576,1.26449625084851,0.0164053784532873,-0.144405764176048
6.36363636363637,1.34301839627604,0.0168349349427651,-0.146618126127083
6.96969696969697,1.42053353278094,0.0173021287981715,-0.148648427413892
7.57575757575757,1.4948268738385,0.0179015679133696,-0.150146154194565
8.18181818181818,1.56765079007369,0.0185667585518769,-0.151437667907033
8.78787878787879,1.63744172105119,0.0193691267332052,-0.152313425086773
9.39393939393939,1.70346625013891,0.0203874907894225,-0.152810212196145
10.0,1.76746270636807,0.0215220962738284,-0.153102937305931
10.6060606060606,1.82201327031432,0.0233181818840206,-0.152764754354173
11.2121212121212,1.87119145514923,0.0255933678281282,-0.152260897803338
11.8181818181818,1.91028641205185,0.0287579289278516,-0.151449373102448
12.4242424242424,1.93870209516709,0.0331235999443593,-0.150564031898302
13.030303030303,1.9616682481463,0.038078286866794,-0.149569512346785
13.6363636363636,1.96754254546573,0.044472738017821,-0.147101634351936
14.2424242424242,1.97658228632705,0.0507645626519544,-0.145125633365513
14.8484848484848,1.9903531387233,0.0569037194391856,-0.143887450184581
15.4545454545455,1.99650938116987,0.0636867330740841,-0.14238244990964
16.0606060606061,1.99764470285701,0.0709465069226511,-0.140831479690088
16.6666666666667,1.97650564774566,0.0805624612935727,-0.1396672363534
17.2727272727273,1.95538629736481,0.0901764289596691,-0.13850299434177
17.8787878787879,1.93423427851967,0.0997914939388126,-0.137338752383677
18.4848484848485,1.91110066478984,0.110800878342463,-0.138006505826294
19.0909090909091,1.88748068187047,0.122157534357692,-0.139132259354554
19.6969696969697,1.86386069111839,0.133513999578113,-0.140258014170721
20.3030303030303,1.83398769502624,0.144557768848238,-0.142041042783067
20.9090909090909,1.81482253224655,0.155288620806754,-0.144481343057679
21.5151515151515,1.79565738515086,0.166018223597633,-0.146921644759536
22.1212121212121,1.77649226111101,0.176745612015069,-0.149361948087946
22.7272727272727,1.75732715266769,0.18747603879641,-0.151802252803553
23.3333333333333,1.73816204852603,0.198213143519664,-0.154242557998361
23.9393939393939,1.71899694495849,0.208950248033595,-0.156682864595589
24.5454545454545,1.71452494522275,0.219839266864305,-0.160044035489519
25.1515151515151,1.70979154522354,0.230745171851615,-0.163507527770793
25.7575757575758,1.699376318035,0.241651079370767,-0.166971021156522
26.3636363636364,1.68896108999381,0.252556987407919,-0.170434514243819
26.969696969697,1.67854586251461,0.263462895096395,-0.173898007028466
27.5757575757576,1.66813063540091,0.27436880264506,-0.177361499401031
28.1818181818182,1.65796073506321,0.285286528370389,-0.180771673382029
28.7878787878788,1.64845051301321,0.296231829838681,-0.184057438458469
29.3939393939394,1.63898641436497,0.307177131825419,-0.187343203387223
30.0,1.62948486661177,0.318122437554767,-0.190628962413533
33.0,1.55598916671587,0.375406558653026,-0.206930658179051
36.0,1.42956737144382,0.43890037268808,-0.223306751757485
39.0,1.31401943437667,0.505278789516681,-0.239327569355859
42.0,1.2023786735675,0.572742330194448,-0.252452880563439
45.0,1.09371426250065,0.64095543390679,-0.26341988852179
48.0,1.02447827691206,0.709355098299082,-0.274386896190996
51.0,0.955395606992867,0.776791505776259,-0.284767585553772
54.0,0.885878214562883,0.842893437507159,-0.294846946654179
57.0,0.815650861101859,0.907331339830046,-0.304708934088858
60.0,0.743778823420896,0.968030646045832,-0.314579992615303
63.0,0.670671078251131,1.02527408889235,-0.324470703285087
66.0,0.596492174740629,1.07898006561435,-0.334367613114791
69.0,0.521179998763148,1.12816217663452,-0.344264874586208
72.0,0.444958259719047,1.17069378951834,-0.353880164476343
75.0,0.368550854753817,1.20822281180517,-0.363431899394982
78.0,0.292184997204604,1.24056821301301,-0.372879073089261
81.0,0.216558907168969,1.26528021257558,-0.381883659907926
84.0,0.142498211064748,1.28282171750885,-0.390330809624535
87.0,0.0702080266984,1.29441948951163,-0.398603865275381
90.0,2.83684971530144e-10,1.29999994774573,-0.406877035329063
93.0,-0.0491456189584431,1.29441948948082,-0.41112789983221
96.0,-0.0997487478450612,1.28282171746833,-0.415378769219076
99.0,-0.151591234548818,1.26528021276816,-0.419132397522905
102.0,-0.204529497573553,1.24056821320277,-0.421294286848455
105.0,-0.257985598494952,1.2082228116661,-0.422192308964419
108.0,-0.311470782012298,1.17069378931869,-0.422737650379564
111.0,-0.364825998728601,1.12816217695146,-0.422990186546995
114.0,-0.417544522564847,1.0789800652577,-0.421946700242729
117.0,-0.469469754631566,1.02527408882523,-0.420903218833329
120.0,-0.520645175941607,0.968030646259131,-0.420291291179462
123.0,-0.570955603103753,0.907331339198415,-0.420542856586506
126.0,-0.620114749989843,0.842893437634247,-0.421186802756651
129.0,-0.668776924496259,0.776791506298021,-0.423298186027395
132.0,-0.717134795002763,0.709355096249268,-0.427413137447514
135.0,-0.765599987908232,0.640955427212404,-0.435425672158307
138.0,-0.815415077643639,0.572742319930925,-0.443438597102601
141.0,-0.867313614226437,0.505278775734147,-0.45416882625128
144.0,-0.921947173449231,0.438900352722281,-0.468544534334753
147.0,-0.984192432199085,0.375406527145853,-0.483363791215884
150.0,-0.942187646547978,0.314064018560735,-0.495037768219011
153.0,-0.848039942046296,0.256765679347464,-0.475308255313391
156.0,-0.753843746165311,0.203761265620115,-0.452426568898058
159.0,-0.659629104253502,0.155280204764428,-0.429544063423552
162.0,-0.56539977483114,0.112205788142027,-0.437533124940953
165.0,-0.471166477086214,0.0752288152141807,-0.460957402438061
168.0,-0.376933179340903,0.0540025481890213,-0.484382504775283
171.0,-0.282699867710892,0.0463084265927295,-0.449999754207926
174.0,-0.18846652800253,0.0413786079922686,-0.299999834182374
177.0,-0.094233187948448,0.0383265955678298,-0.149999916117331
180.0,0.0,0.0371823486494224,0.0
