Alpha (deg),Cl,Cd,Cm
-180.0,0.0,0.0136543508227385,0.0
-177.0,0.0798609855405092,0.0149692551473288,0.120000000361047
-174.0,0.159721969883396,0.0184771984800638,0.239999998922534
-171.0,0.239583394259224,0.0241459362728649,0.360000658682385
-168.0,0.31944799780536,0.0372677562324499,0.396892311739968
-165.0,0.399304926057848,0.0717885676942386,0.392231371296624
-162.0,0.479170271874063,0.11281935771357,0.387569939552598
-159.0,0.559022495425032,0.160399187807013,0.392003480385307
-156.0,0.638889967394422,0.214057717530898,0.414630759043824
-153.0,0.718749721785344,0.272822441523332,0.43725511519151
-150.0,0.798609853015267,0.336443289763391,0.457638615688168
-147.0,0.840532518645362,0.404642697230333,0.455613075602449
-144.0,0.806561312087627,0.47530493680186,0.451341667189282
-141.0,0.77493850992712,0.549250670462719,0.447154954362196
-138.0,0.743292336551017,0.624465712728365,0.444364887015029
-135.0,0.711202021806831,0.700571097596953,0.444082065127714
-132.0,0.67721428347913,0.776943757156489,0.443672766494289
-129.0,0.640812604283677,0.852302349687188,0.445265504633628
-126.0,0.603384617743468,0.926223230637692,0.447894106746961
-123.0,0.563673958713912,0.998337017130522,0.451267939925834
-120.0,0.520480304697618,1.06634832214642,0.454523278956677
-117.0,0.474958787139858,1.13055738650595,0.457520517643715
-114.0,0.427389976287925,1.19086950341895,0.460388758359819
-111.0,0.377610052586628,1.24618994258161,0.463256715091906
-108.0,0.325556939534075,1.29415907510863,0.46369998446947
-105.0,0.272336762563422,1.33659633697368,0.463595516497173
-102.0,0.218144442528832,1.37329916595462,0.462958000055275
-99.0,0.163179321438924,1.40154968950288,0.46071766821849
-96.0,0.108265322055747,1.42185667738418,0.456459020650291
-93.0,0.0537895641458873,1.43557829844901,0.451569624454849
-90.0,-2.10704006635754e-10,1.44263181062163,0.446680185826248
-87.0,-0.0537895638233844,1.43557829849128,0.435878770630728
-84.0,-0.10826532190737,1.42185667743235,0.425077335519856
-81.0,-0.163179321869542,1.40154968928153,0.413803007748054
-78.0,-0.218144442959449,1.37329916573332,0.401015474624089
-75.0,-0.272336762346092,1.33659633712688,0.387026279806174
-72.0,-0.325556939289425,1.29415907532945,0.372688377080292
-69.0,-0.377610052911058,1.24618994222104,0.358044718219433
-66.0,-0.427389975923899,1.19086950382346,0.342047483018041
-63.0,-0.474958787075171,1.13055738659229,0.326050242961113
-60.0,-0.520480304836904,1.0663483219271,0.310013315655845
-57.0,-0.563673958255867,0.998337017851749,0.293897023949359
-54.0,-0.603384617818835,0.926223230499778,0.277744658177305
-51.0,-0.640812604563567,0.852302349098629,0.261692654698897
-48.0,-0.677214283659862,0.776943756759276,0.245781978695849
-45.0,-0.711202021517173,0.700571098255923,0.23014628748908
-42.0,-0.71422320351628,0.624465712733573,0.214510565787943
-39.0,-0.722409025795224,0.549250670321335,0.185675269459732
-36.0,-0.736179800413162,0.475304937551559,0.138979850845084
-33.0,-0.757968795181359,0.404642697002585,0.0901847666655068
-30.0,-0.888104330433915,0.300031426221957,0.059178238669209
-29.3939393939394,-0.925156677727338,0.275620425268986,0.0547276855828139
-28.7878787878788,-0.962429377194438,0.251256730622074,0.0502859035866367
-28.1818181818182,-0.999990901550684,0.226919897688249,0.0458513031137015
-27.5757575757576,-1.01057864444636,0.213164916768186,0.0420456977646449
-26.969696969697,-1.01039892788278,0.203834211134763,0.0384894812999605
-26.3636363636364,-1.01159176554783,0.194343062498797,0.0348802334175386
-25.7575757575758,-1.0127855192072,0.184893367247251,0.031293377762519
-25.1515151515151,-1.01419258464512,0.175443671995705,0.0277127213880711
-24.5454545454545,-1.01562653956742,0.16619308043501,0.0241320650136232
-23.9393939393939,-1.0173894560693,0.157458080080909,0.0208465751949433
-23.3333333333333,-1.01974610235193,0.149451066514291,0.0181790554378819
-22.7272727272727,-1.02210303705925,0.141443896224012,0.0155113887480286
-22.1212121212121,-1.02446019345787,0.133436581476424,0.012843601722794
-21.5151515151515,-1.02681752392732,0.125429133290351,0.0101757149054285
-20.9090909090909,-1.02917499357465,0.117421561591757,0.00750774441485226
-20.3030303030303,-1.03153257624865,0.109413875345953,0.00483970307586866
-19.6969696969697,-1.03194590847973,0.102327438930825,0.00282730388963501
-19.0909090909091,-1.03041667693576,0.0961623320832436,0.00142910027982897
-18.4848484848485,-1.02888974156717,0.0899972235485471,2.27855970232441e-05
-17.8787878787879,-1.02686263921748,0.083978063338397,-0.00128548267894105
-17.2727272727273,-1.02284669539027,0.0785413553424832,-0.00221469814403271
-16.6666666666667,-1.0188640089392,0.0731022327973328,-0.00313077606087737
-16.0606060606061,-1.01491470163482,0.0676604404457411,-0.00403533758396153
-15.4545454545455,-1.02674271599713,0.0617436995547838,-0.00406044278936582
-14.8484848484848,-1.0412004778692,0.0557404644017538,-0.00398632157535356
-14.2424242424242,-1.05144633914145,0.0496868465644168,-0.00391037218045338
-13.6363636363636,-1.05697283679467,0.0442923016547006,-0.00423102193808435
-13.030303030303,-1.06113762214322,0.0395429943041411,-0.00486791425867614
-12.4242424242424,-1.06631678327636,0.0347909267291825,-0.00553933643158541
-11.8181818181818,-1.05781395567694,0.0304189693354955,-0.00806670078741402
-11.2121212121212,-1.01477263239289,0.0269339357936634,-0.0145475572050489
-10.6060606060606,-0.972871736373348,0.0234489022518313,-0.0210285089517864
-10.0,-0.930076938867818,0.0199638687099991,-0.0275094606985239
-9.39393939393939,-0.856540896639794,0.0179845444324846,-0.0344382577540264
-8.78787878787879,-0.785614120334243,0.0159778006694114,-0.0415091200751881
-8.18181818181818,-0.714353815976791,0.0139279410566759,-0.0487462207606552
-7.57575757575758,-0.636912638804858,0.0127139373323524,-0.0546654754233927
-6.96969696969697,-0.555754839718666,0.0118867573233854,-0.0597130493847846
-6.36363636363636,-0.47487747391988,0.0110585042788663,-0.0646854936963728
-5.75757575757576,-0.393607097029334,0.0104449911365705,-0.0691798405708893
-5.15151515151515,-0.311628687539039,0.01014948133518,-0.07295921548054
-4.54545454545454,-0.229659436999832,0.00984670019050561,-0.0767336667977469
-3.93939393939394,-0.147858422214072,0.0095564839274099,-0.0804140315924711
-3.33333333333333,-0.0674709559548268,0.00943311777945583,-0.0833409703632743
-2.72727272727273,0.0128990207932302,0.00930953281470486,-0.0862999941681748
-2.12121212121212,0.0932169872944815,0.00918572254204942,-0.0894214665864417
-1.51515151515152,0.172642707169243,0.00913163890320627,-0.0921062312199545
-0.909090909090912,0.252444138532166,0.00910255466395226,-0.0946754904911537
-0.303030303030302,0.33170036225328,0.00911616693354722,-0.0970674615690558
0.303030303030302,0.410043430043363,0.00915253877357462,-0.0993697413890095
0.909090909090912,0.487857280595579,0.00921166665327511,-0.101582794948876
1.51515151515152,0.565318889726456,0.00930888112730011,-0.10365942049022
2.12121212121212,0.642624737635314,0.00942146400620185,-0.105681918241275
2.72727272727273,0.719347876248603,0.00956861302369473,-0.107585926529258
3.33333333333333,0.795634328886608,0.00973772300270061,-0.109409069396802
3.93939393939394,0.871566408808796,0.00992479436686666,-0.111165993848719
4.54545454545455,0.946634493373269,0.0101575024544714,-0.112777249376932
5.15151515151515,1.02123838405903,0.010420969589576,-0.114321259005845
5.75757575757576,1.09472428686644,0.0107613261548261,-0.115712874090478
6.36363636363637,1.16745197363599,0.0111218682875738,-0.116993383627994
6.96969696969697,1.239680693264,0.0114960427989103,-0.118199737062547
7.57575757575757,1.31042870228468,0.0119245250789228,-0.119199567276037
8.18181818181818,1.38024523037595,0.012399671361751,-0.120087296578269
8.78787878787879,1.44808207028799,0.0129835922842993,-0.12073858091241
9.39393939393939,1.51395240384107,0.0136375359112787,-0.12114565568478
10.0,1.57876502107448,0.0143292550463093,-0.121421085682981
10.6060606060606,1.63919808073409,0.015181037778713,-0.121187489583026
11.2121212121212,1.69748542906344,0.016113853579596,-0.120726870021121
11.8181818181818,1.75178248750316,0.0171958866204821,-0.119845140403535
12.4242424242424,1.79951235163196,0.018567536149395,-0.118393239191405
13.030303030303,1.84392342190507,0.0201070844091207,-0.116672906622536
13.6363636363636,1.87854132672718,0.0221728079920697,-0.114463294017121
14.2424242424242,1.89779720687402,0.0251915778933972,-0.111498022694599
14.8484848484848,1.89539651740972,0.0299249562524618,-0.107494614600272
15.4545454545455,1.88374706385959,0.0354893907186346,-0.104748783879484
16.0606060606061,1.86601981158244,0.0417380159007761,-0.102539208428596
16.6666666666667,1.81391052239722,0.0516613957478006,-0.101613264986842
17.2727272727273,1.76180123321201,0.0615847755948252,-0.100672414026563
17.8787878787879,1.70969194402679,0.0715081554418497,-0.0997104400427064
18.4848484848485,1.652819684309,0.0835593069668634,-0.101115480477301
19.0909090909091,1.59475668221062,0.0961424012985452,-0.103157617955346
19.6969696969697,1.53669368011225,0.108725495630227,-0.105258681023262
20.3030303030303,1.49154113949666,0.121374860150779,-0.108294560131748
20.9090909090909,1.45929905841654,0.134090494850204,-0.112193966150013
21.5151515151515,1.42705697733642,0.14680612954963,-0.116075485694155
22.1212121212121,1.3948148962563,0.159587492016469,-0.119942294234425
22.7272727272727,1.36257281517618,0.172578683312153,-0.123796977131865
23.3333333333333,1.33033073409605,0.18548793058164,-0.127641687036771
23.9393939393939,1.29808865301593,0.198337286252329,-0.131478262274388
24.5454545454545,1.28218583339303,0.21084419362868,-0.135236416024476
25.1515151515151,1.26883937555173,0.223273234289272,-0.138988538406987
25.7575757575758,1.2579651552461,0.235633230678678,-0.14274365662691
26.3636363636364,1.24663419815622,0.247877567149417,-0.146502621914054
26.969696969697,1.23311293307006,0.260807523749561,-0.150266586154429
27.5757575757576,1.22203262990368,0.273617709021746,-0.154037135031009
28.1818181818182,1.21080273627322,0.287045243575757,-0.157932968188436
28.7878787878788,1.19640365991459,0.302255050998465,-0.162104217050273
29.3939393939394,1.18184509136327,0.31724120839583,-0.166275475274898
30.0,1.16734054892987,0.331956871549156,-0.170446750732485
33.0,1.10803931291407,0.404642697002585,-0.190516649147822
36.0,1.07394545293686,0.475304937551559,-0.209533518470525
39.0,1.04907955150881,0.549250670321335,-0.228297555662535
42.0,1.02996551175668,0.624465712733573,-0.244948495124543
45.0,1.01600288788167,0.700571098255923,-0.260024147487639
48.0,0.967448976656946,0.776943756759276,-0.275099701837258
51.0,0.915446577947953,0.852302349098629,-0.289491933631683
54.0,0.861978025455478,0.926223230499778,-0.30353299024506
57.0,0.805248511794096,0.998337017851749,-0.31731150997603
60.0,0.743543292624148,1.0663483219271,-0.330916437335118
63.0,0.67851255296453,1.13055738659229,-0.344139468213712
66.0,0.610557108462713,1.19086950382346,-0.357171548835386
69.0,0.539442932730083,1.24618994222104,-0.370203627231969
72.0,0.465081341842035,1.29415907532945,-0.38229501968111
75.0,0.389052517637273,1.33659633712688,-0.394173920378729
78.0,0.311634918513499,1.37329916573332,-0.405836656551437
81.0,0.233113316956489,1.40154968928153,-0.416821345052783
84.0,0.154664745581957,1.42185667743235,-0.426952192906053
87.0,0.076842234033406,1.43557829849128,-0.436816199399528
90.0,3.01005577142688e-10,1.44263181062163,-0.44668018582992
93.0,-0.053789564145887,1.43557829844901,-0.451569624454849
96.0,-0.108265322055747,1.42185667738418,-0.456459020650291
99.0,-0.163179321438925,1.40154968950288,-0.46071766821849
102.0,-0.218144442528832,1.37329916595462,-0.462958000055275
105.0,-0.272336762563422,1.33659633697368,-0.463595516497173
108.0,-0.325556939534075,1.29415907510863,-0.46369998446947
111.0,-0.377610052586628,1.24618994258161,-0.463256715091906
114.0,-0.427389976287925,1.19086950341895,-0.460388758359819
117.0,-0.474958787139857,1.13055738650596,-0.457520517643715
120.0,-0.520480304697619,1.06634832214642,-0.454523278956677
123.0,-0.563673958713913,0.998337017130522,-0.451267939925834
126.0,-0.603384617743468,0.926223230637692,-0.447894106746961
129.0,-0.640812604283677,0.852302349687188,-0.445265504633628
132.0,-0.677214283479131,0.776943757156488,-0.443672766494289
135.0,-0.711202021806831,0.700571097596953,-0.444082065127714
138.0,-0.743292336551017,0.624465712728365,-0.444364887015029
141.0,-0.77493850992712,0.549250670462718,-0.447154954362196
144.0,-0.806561312087627,0.47530493680186,-0.451341667189282
147.0,-0.840532518645362,0.404642697230333,-0.455613075602449
150.0,-0.798609853015267,0.33644328976339,-0.457638615688168
153.0,-0.718748867623783,0.27282179672531,-0.437254873210369
156.0,-0.638887882232299,0.214056247012236,-0.414630168305695
159.0,-0.559026896840815,0.160402053338931,-0.392004727372908
162.0,-0.479165911449332,0.112817036258897,-0.407570194185994
165.0,-0.399304926057848,0.0717885676942388,-0.44223137146315
168.0,-0.319443940666364,0.0372661312158536,-0.476892548740306
171.0,-0.23958295527488,0.0241459023863656,-0.449999998824567
174.0,-0.159721969883396,0.0184771984800638,-0.299999998653168
177.0,-0.0798609855405092,0.0149692551473288,-0.150000000451309
180.0,0.0,0.0136543508227385,0.0
