Alpha (deg),Cl,Cd,Cm
-180.0,0.0,0.0217374823223351,0.0
-177.0,0.0841747344001992,0.0229238945183467,0.120000000361047
-174.0,0.168349467538086,0.0260887478369178,0.239999998922534
-171.0,0.25252466447761,0.0312019975702988,0.360000658682385
-168.0,0.336703212312626,0.0426579497376834,0.400324043887906
-165.0,0.420873670267459,0.0734900656639557,0.400810047996484
-162.0,0.505053000466808,0.111219395546152,0.401296103333812
-159.0,0.589218499592269,0.154958667347762,0.408943297147208
-156.0,0.673400070790493,0.204087144053953,0.430922791470545
-153.0,0.75757350753967,0.25776587741681,0.452906806353953
-150.0,0.84174734148308,0.315782318594389,0.472265382542585
-147.0,0.882389962897012,0.377889846455304,0.465332910226478
-144.0,0.836028151242537,0.442173333076003,0.455871409955839
-141.0,0.794565209742694,0.509378442919534,0.446793335362831
-138.0,0.754535846440025,0.577683420858199,0.439935895142098
-135.0,0.715450543657043,0.646749236308985,0.434903683948856
-132.0,0.675902756772911,0.716007675542096,0.429928039081901
-129.0,0.634654654178195,0.784295671783056,0.427980016801946
-126.0,0.592158783707781,0.85123671082968,0.427584876340051
-123.0,0.548544085047219,0.91649747048991,0.428359152768957
-120.0,0.502875201052636,0.977981048042839,0.429465532573822
-117.0,0.455772721532554,1.03597188647757,0.430840244393938
-114.0,0.407412592034292,1.0903871382833,0.432352369926417
-111.0,0.35770154351131,1.14022936816186,0.433863859838403
-108.0,0.306699588422698,1.18334797466168,0.433567669408048
-105.0,0.255143583939434,1.22140851194287,0.432863147080755
-102.0,0.203201800219027,1.25422776095442,0.4317302567787
-99.0,0.151226491328113,1.27932826791147,0.429217176523803
-96.0,0.0998775604018197,1.29717762947833,0.424965721478662
-93.0,0.0493943919230776,1.30901614475637,0.420170258453173
-90.0,-1.93487277153472e-10,1.31476926475817,0.415373790781742
-87.0,-0.0493943916269266,1.30901614479086,0.405486879915762
-84.0,-0.0998775602635641,1.29717762952045,0.395599074198731
-81.0,-0.151226491735307,1.27932826771482,0.385300097207813
-78.0,-0.203201800626221,1.25422776075777,0.373717017673326
-75.0,-0.255143583730654,1.22140851207997,0.361152801214846
-72.0,-0.30669958818345,1.1833479748601,0.348304294051421
-69.0,-0.357701543835287,1.14022936783702,0.335224620927386
-66.0,-0.407412591670765,1.09038713864779,0.321121506304482
-63.0,-0.455772721466293,1.0359718865555,0.307018393643207
-60.0,-0.502875201199884,0.977981047844593,0.292941144385646
-57.0,-0.548544084562848,0.916497471141984,0.278915617587947
-54.0,-0.592158783790785,0.851236710704852,0.26491360033446
-51.0,-0.634654654505576,0.784295671249852,0.250991642998395
-48.0,-0.675902756981343,0.716007675181948,0.237178809990731
-45.0,-0.715450543319032,0.646749236906683,0.223578312516846
-42.0,-0.74721263558148,0.577683420862925,0.209977828450924
-39.0,-0.781339084463047,0.509378442791081,0.181914783656029
-36.0,-0.818326029572499,0.442173333757758,0.134468735712643
-33.0,-0.861666730686327,0.377889846248025,0.0851899048793404
-30.0,-0.977407521152394,0.287914590838491,0.055785932352146
-29.3939393939394,-1.00833410460803,0.266900014337564,0.0518750253229907
-28.7878787878788,-1.03944585629858,0.245712427750349,0.0479646131853606
-28.1818181818182,-1.07075983951806,0.2242972966105,0.0440560937024066
-27.5757575757576,-1.07977248176135,0.211454069401785,0.0405458911189005
-26.969696969697,-1.07893714083999,0.202411192469744,0.0372146035915721
-26.3636363636364,-1.07807768904072,0.193356399828069,0.0339091900068658
-25.7575757575758,-1.07771870176597,0.184230942280158,0.0305502565021514
-25.1515151515151,-1.07748500137268,0.175097432934217,0.0271844060836673
-24.5454545454545,-1.07783441570723,0.16595492347062,0.0238177771778947
-23.9393939393939,-1.07852305933399,0.156913596568514,0.0205340252077774
-23.3333333333333,-1.08041322073537,0.148857364241138,0.018004373784734
-22.7272727272727,-1.08276745332554,0.140772030945667,0.0154742554286299
-22.1212121212121,-1.08578354631627,0.132638187986721,0.0129432191443736
-21.5151515151515,-1.08979029955101,0.124414233467909,0.010409957353608
-20.9090909090909,-1.09184637472999,0.116220815400643,0.0078684335222312
-20.3030303030303,-1.09358340080095,0.108217743451423,0.00534495216775592
-19.6969696969697,-1.09501527477011,0.100983885638365,0.00348679820177673
-19.0909090909091,-1.09614199659143,0.0945192420774911,0.00228208291510966
-18.4848484848485,-1.09726871841275,0.0880545985166175,0.00108096502999919
-17.8787878787879,-1.09785715259451,0.0817623562171409,-2.02416817873374e-06
-17.2727272727273,-1.09629243576131,0.0761597191095228,-0.000606512824423597
-16.6666666666667,-1.09472771892811,0.0705570820019048,-0.00121690795578454
-16.0606060606061,-1.09316300209491,0.0649544448942867,-0.00183248903635476
-15.4545454545455,-1.09613374489892,0.0597088835266201,-0.0017579709585109
-14.8484848484848,-1.09960842783154,0.0545029972544688,-0.00160745909592056
-14.2424242424242,-1.1044169286074,0.0492971109823175,-0.00145777325451322
-13.6363636363636,-1.10435506998046,0.0444638442227785,-0.00200737777442865
-13.030303030303,-1.10077397380585,0.0397937043169987,-0.00302285380389433
-12.4242424242424,-1.09675366340232,0.0351570244283776,-0.00418800750620713
-11.8181818181818,-1.0776854470153,0.0310174492290005,-0.00693153298195293
-11.2121212121212,-1.02548576509049,0.0280136918402233,-0.0136474411178956
-10.6060606060606,-0.973197953819101,0.0250277875283641,-0.0202846283874192
-10.0,-0.919871497017031,0.0220602517171776,-0.026921539373647
-9.39393939393939,-0.85194803433358,0.0204638176587585,-0.0324442958437105
-8.78787878787879,-0.78346309484302,0.0188850948575064,-0.0377850487070902
-8.18181818181818,-0.714918196286913,0.0172836412694766,-0.043097294531858
-7.57575757575758,-0.641938143272311,0.0160892927584378,-0.0480462615837937
-6.96969696969697,-0.568849639934256,0.0150731845776213,-0.0527890340238474
-6.36363636363636,-0.49560644687263,0.0140570504984526,-0.057500472085942
-5.75757575757576,-0.418175638343572,0.0132424463596794,-0.0623143503352012
-5.15151515151515,-0.33455772187005,0.0127301767253877,-0.0673311759382631
-4.54545454545454,-0.250934634003256,0.0122179258029979,-0.0723497641378391
-3.93939393939394,-0.167163196087245,0.0117347370223171,-0.0772955710687187
-3.33333333333333,-0.0821140238590517,0.0115129096428989,-0.0815460695778501
-2.72727272727273,0.00294440481882872,0.011291091248476,-0.0858208614979761
-2.12121212121212,0.0880284021340677,0.0110692830695728,-0.0901031663114491
-1.51515151515152,0.171837087080499,0.0109565425847383,-0.0938175069230607
-0.909090909090912,0.254159509620519,0.0108808683063141,-0.0973501629109806
-0.303030303030302,0.335814192276218,0.0108607098789239,-0.100585821949666
0.303030303030302,0.417257272770955,0.0108692236701319,-0.103667153907187
0.909090909090912,0.498306799612079,0.0109064084584037,-0.106594228716144
1.51515151515152,0.578569740443125,0.0109847601805516,-0.109304585948093
2.12121212121212,0.658523972825206,0.0110785933920551,-0.111930657572403
2.72727272727273,0.737777889192087,0.0112052820470056,-0.114372503341276
3.33333333333333,0.81653718957983,0.0113545599102188,-0.116702533940529
3.93939393939394,0.894891640979103,0.0115223250189201,-0.118941091948091
4.54545454545455,0.972326335266859,0.0117303555711818,-0.121001628443248
5.15151515151515,1.04929528111209,0.0119621597462993,-0.122984164838735
5.75757575757576,1.1251715347323,0.0122520049332423,-0.124791930327236
6.36363636363637,1.20030485398258,0.0125668477175964,-0.126465070704497
6.96969696969697,1.27494075675984,0.0128982067564619,-0.128048458099034
7.57575757575757,1.34780321826962,0.0133033042040786,-0.129374113946798
8.18181818181818,1.41987667115941,0.0137381098898506,-0.130588105116977
8.78787878787879,1.49032467656013,0.0142329122261789,-0.131573107315432
9.39393939393939,1.55855460503253,0.0148121494880681,-0.132274151573409
10.0,1.62559386142883,0.0154370974192526,-0.132822471614532
10.6060606060606,1.68810293481442,0.0162414351444013,-0.132828428677163
11.2121212121212,1.74842177498541,0.0171457652515713,-0.132616395554703
11.8181818181818,1.80468145357437,0.0182359353294943,-0.131999323670151
12.4242424242424,1.85483034725291,0.0196591314533621,-0.130897273257466
13.030303030303,1.90192286643216,0.0212644138143197,-0.129552794349175
13.6363636363636,1.9379117105542,0.023566924269162,-0.127561205361536
14.2424242424242,1.96399277805599,0.0267445700485666,-0.125110374634167
14.8484848484848,1.97260659727113,0.0311711168059341,-0.121926192953706
15.4545454545455,1.96993707646395,0.0365832289377197,-0.119279411294282
16.0606060606061,1.95993082890044,0.0426178543878324,-0.116925479434429
16.6666666666667,1.9262916558691,0.0509556815109061,-0.115436602431698
17.2727272727273,1.89301494280933,0.05929350863398,-0.113952524249452
17.8787878787879,1.85991396998648,0.0676313357570538,-0.112473512876535
18.4848484848485,1.80747077851874,0.0787288258488874,-0.112698543694746
19.0909090909091,1.75029214720194,0.0905162315365745,-0.113349928239477
19.6969696969697,1.69323385344622,0.102303637224262,-0.114005376128086
20.3030303030303,1.64558948120989,0.114722057041261,-0.116030797716261
20.9090909090909,1.60732623207263,0.127771490892394,-0.119419657964518
21.5151515151515,1.56913999200487,0.140820924743527,-0.122808092414555
22.1212121212121,1.5310422508738,0.153870358594661,-0.12619604029427
22.7272727272727,1.49304690391506,0.166919792445794,-0.129583428810528
23.3333333333333,1.45517091594085,0.179969226296927,-0.132970170088901
23.9393939393939,1.4174352185076,0.193335820052193,-0.136356157177718
24.5454545454545,1.40010847052569,0.205790666886378,-0.139981805765396
25.1515151515151,1.38541103497444,0.218144652849035,-0.14363150496439
25.7575757575758,1.37154955577862,0.230494278263784,-0.147277895265856
26.3636363636364,1.35839046020086,0.242838896354751,-0.150920274731784
26.969696969697,1.34656944420628,0.254970634663723,-0.154557742892402
27.5757575757576,1.33419462056143,0.267178072887505,-0.158189123168826
28.1818181818182,1.32218661471809,0.279450203847558,-0.161796882673802
28.7878787878788,1.31172633192914,0.291709841252515,-0.16536947177857
29.3939393939394,1.30141322226534,0.303946150609218,-0.168950952141423
30.0,1.29124453612096,0.316169332161231,-0.172542853460426
33.0,1.23741036513722,0.377889846248025,-0.190504903971589
36.0,1.17471440374457,0.442173333757758,-0.208256506356818
39.0,1.12053937058065,0.509378442791082,-0.225683692470012
42.0,1.06989489453617,0.577683420862926,-0.240471458547195
45.0,1.02207220474147,0.646749236906683,-0.253291887563755
48.0,0.965575367116204,0.716007675181948,-0.266112360197556
51.0,0.906649506436537,0.784295671249852,-0.278254052268372
54.0,0.845941119701121,0.851236710704852,-0.290046894756985
57.0,0.783634406518354,0.916497471141985,-0.301583606256017
60.0,0.718393144571262,0.977981047844593,-0.313041343864963
63.0,0.65110388780899,1.0359718865555,-0.324325336574272
66.0,0.582017988101093,1.09038713864779,-0.335522457664241
69.0,0.511002205478981,1.14022936783703,-0.346719579581186
72.0,0.4381422688335,1.1833479748601,-0.357355547912326
75.0,0.364490833900934,1.22140851207997,-0.367864769781012
78.0,0.290288286608887,1.25422776075777,-0.37822428956048
81.0,0.216037845336153,1.27932826771482,-0.388095119866251
84.0,0.142682228947948,1.29717762952045,-0.39733190398281
87.0,0.0705634166098949,1.30901614479086,-0.406353349450853
90.0,2.76410259497282e-10,1.31476926475817,-0.415373790785137
93.0,-0.0493943919230774,1.30901614475637,-0.420170258453173
96.0,-0.09987756040182,1.29717762947833,-0.424965721478662
99.0,-0.151226491328113,1.27932826791147,-0.429217176523803
102.0,-0.203201800219026,1.25422776095442,-0.4317302567787
105.0,-0.255143583939434,1.22140851194287,-0.432863147080755
108.0,-0.306699588422698,1.18334797466168,-0.433567669408048
111.0,-0.357701543511311,1.14022936816186,-0.433863859838403
114.0,-0.407412592034293,1.0903871382833,-0.432352369926417
117.0,-0.455772721532554,1.03597188647757,-0.430840244393938
120.0,-0.502875201052636,0.977981048042839,-0.429465532573822
123.0,-0.548544085047219,0.916497470489911,-0.428359152768957
126.0,-0.592158783707781,0.85123671082968,-0.427584876340051
129.0,-0.634654654178196,0.784295671783056,-0.427980016801946
132.0,-0.675902756772912,0.716007675542096,-0.429928039081901
135.0,-0.715450543657043,0.646749236308985,-0.434903683948856
138.0,-0.754535846440026,0.577683420858198,-0.439935895142098
141.0,-0.794565209742694,0.509378442919534,-0.446793335362832
144.0,-0.836028151242537,0.442173333076003,-0.455871409955839
147.0,-0.882389962897012,0.377889846455304,-0.465332910226478
150.0,-0.841747341483079,0.315782318594388,-0.472265382542585
153.0,-0.757572607239955,0.257765288946874,-0.452906571182753
156.0,-0.673397872996831,0.204085799419455,-0.430922217547708
159.0,-0.589223138753706,0.154961295068555,-0.40894450823034
162.0,-0.505048404510583,0.11121725380265,-0.421296076928795
165.0,-0.420873670267459,0.0734900656639558,-0.450810048163011
168.0,-0.336698936024334,0.0426565148972725,-0.480324019397226
171.0,-0.25252420178121,0.0312019670082145,-0.449999998824567
174.0,-0.168349467538086,0.0260887478369178,-0.299999998653168
177.0,-0.0841747344001992,0.0229238945183467,-0.150000000451309
180.0,0.0,0.0217374823223351,0.0
